0,2386281,0.3446,-2.0530,9.5282,0.4200,-0.1400,-0.2100,999.0895,0.3168,-2.0364,9.5876,1590579071,N
0,2387808,0.2847,-2.1248,9.5952,2.5900,0.7700,0.5600,999.0870,0.3014,-2.0110,9.5935,1590579071,N
0,2386414,0.4259,-2.0483,9.5785,0.4900,-0.9800,0.0700,999.0849,0.3343,-2.0417,9.5859,1590579071,N
0,70290,0.2369,-2.0626,9.6168,-0.2100,-0.2100,0.1400,999.0832,0.3166,-2.0541,9.5839,1590579071,N
0,2147483647,0.3972,-2.1368,9.6191,0.8400,-1.5400,0.2800,999.0821,0.3446,-2.1040,9.5721,1590579071,N
0,1112435,0.4044,-2.0219,9.6215,-3.8500,-3.7800,0.2100,999.0814,0.4229,-2.2830,9.5278,1590579071,N
0,1138749,0.2201,-2.3043,9.5880,1.8200,1.3300,-0.2800,999.0807,0.3703,-2.2406,9.5401,1590579071,N
0,1753711,0.0311,-2.1918,9.6479,1.8200,17.2200,-10.8500,999.0801,0.1609,-1.6216,9.6703,1590579071,N
0,1848986,0.1029,-1.0576,9.6933,28.8400,3.9200,-11.2000,999.0805,0.1022,-1.0993,9.7443,1590579072,N
0,1851397,0.9141,-1.7707,9.3894,-14.7700,-26.7400,0.8400,999.0803,0.7809,-2.4398,9.4661,1590579072,N
0,1852980,1.3735,-1.9525,9.7484,-10.1500,-18.5500,2.5200,999.0804,1.0544,-2.5813,9.4019,1590579072,N
0,2009110,1.4046,-1.6056,9.5306,18.5500,-3.3600,-2.0300,999.0798,1.1290,-2.1684,9.4971,1590579072,N
0,2032594,1.5817,-2.3306,9.6479,-9.9400,-8.1200,1.4700,999.0791,1.2890,-2.3379,9.4363,1590579072,N
0,1978246,1.7635,-1.6199,9.6909,3.5700,-4.8300,0.1400,999.0788,1.4085,-2.1521,9.4633,1590579072,N
0,1968863,1.9525,-1.6702,9.4828,-30.2400,-1.1900,4.9700,999.0781,1.5919,-2.3194,9.3945,1590579072,N
0,1967886,3.0628,-3.1825,11.5262,50.2600,-49.2800,10.1500,999.0767,1.9766,-2.2120,9.3472,1590579072,N
0,1971929,4.9412,-0.5982,10.5691,140.5600,-39.7600,-22.8900,999.0752,6.0851,-3.1305,7.0244,1590579072,N
0,1973772,5.6351,2.9671,9.0879,100.1700,-61.6700,-32.4800,999.0740,7.8517,-2.3915,5.3668,1590579073,N
0,1977415,3.5533,2.7757,7.1761,52.4300,-101.0800,13.5800,999.0723,8.7273,-2.0599,3.9701,1590579073,N
0,1982179,3.2710,3.0437,6.8698,-47.8800,-117.6000,53.6900,999.0706,9.1976,-2.2942,2.5122,1590579073,N
0,1985447,3.0700,2.1320,5.2499,-60.5500,-110.0400,50.9600,999.0696,9.4367,-2.3968,1.1727,1590579073,N
0,1988767,20.1595,1.0959,6.1280,33.7400,5.0400,-16.0300,999.0685,9.5201,-1.9702,1.2872,1590579073,N
0,1993574,10.7868,0.7561,6.0203,22.4700,3.0100,-8.6100,999.0670,9.5644,-1.5702,1.4924,1590579073,N
0,1996752,8.5496,0.0359,5.5729,1.4700,4.8300,5.3200,999.0655,9.6067,-1.2844,1.4943,1590579073,N
0,2004629,8.3462,-0.4690,5.1517,0.7000,1.2600,-5.9500,999.0653,9.6589,-1.0691,1.3167,1590579073,N
0,2012818,8.5543,0.2680,5.0154,14.2100,7.9100,-3.0100,999.0648,9.6500,-0.7604,1.5712,1590579073,N
0,2016763,8.3438,0.6365,5.7763,-4.3400,-8.8200,-16.3800,999.0648,9.5952,-0.3766,1.9900,1590579073,N
0,2020897,8.6046,0.3230,5.0441,-1.1900,0.1400,-11.6900,999.0657,9.5086,-0.1470,2.3947,1590579074,N
0,2023484,8.2816,0.4929,5.2235,-0.2800,10.3600,-7.3500,999.0657,9.2984,0.0559,3.1155,1590579074,N
0,2023781,8.2840,0.5408,5.4772,1.3300,12.2500,-3.0100,999.0660,9.0594,0.1964,3.7497,1590579074,N
0,2024782,8.1452,0.4953,5.5705,1.6100,11.1300,-0.4200,999.0662,8.8672,0.2760,4.1793,1590579074,N
0,2026278,8.0662,0.9667,5.3623,25.3400,16.1700,10.6400,999.0659,8.7881,0.4225,4.3315,1590579074,N
0,2029297,7.6666,0.2704,5.5872,1.5400,27.7900,26.4600,999.0649,8.9724,0.2031,3.9529,1590579074,N
0,2031051,7.4584,-0.1460,7.1019,1.7500,29.9600,20.9300,999.0639,9.1225,-0.0134,3.5986,1590579074,N
0,2031193,4.1611,0.1555,7.8126,-78.5400,-4.6200,-17.9900,999.0629,7.9382,-0.0675,5.7577,1590579074,N
0,2038032,8.0375,-0.8255,6.9583,-28.2800,1.1900,17.1500,999.0625,7.4404,-0.4242,6.3742,1590579074,N
0,2040948,9.8752,-0.6197,6.0658,11.3400,-18.7600,0.5600,999.0618,7.4160,-0.3877,6.4049,1590579074,N
0,2043244,7.7599,0.3565,6.6616,-4.7600,3.5700,-3.2200,999.0607,7.7261,-0.2421,6.0349,1590579075,N
0,2045182,7.4512,0.8638,6.8291,-1.1200,2.5900,-0.9800,999.0599,8.9161,-0.0140,4.0834,1590579075,N
0,2045187,7.2574,0.1507,6.6497,1.8200,-26.4600,-20.5800,999.0602,9.6531,0.1668,1.7207,1590579075,N
0,2048454,8.3175,0.9500,6.3027,-16.4500,-34.6500,-16.7300,999.0601,5.9207,0.2366,7.8141,1590579075,N
0,2045243,8.2720,0.8423,5.9342,-9.0300,-14.7000,4.3400,999.0596,6.4994,0.3090,7.3370,1590579075,N
0,2046882,8.9228,0.4116,5.9294,5.0400,12.6700,14.2100,999.0592,7.3190,0.2943,6.5204,1590579075,N
0,2062231,7.2263,-1.0409,6.2237,15.3300,40.3200,34.1600,999.0592,9.6233,-0.1652,1.8804,1590579075,N
0,2064016,6.9464,-0.0072,6.3817,-0.9100,12.4600,5.6000,999.0594,9.5977,-0.1710,2.0062,1590579075,N
0,2061473,7.2407,-0.2154,6.9846,-10.7100,8.1200,-7.4200,999.0591,6.2140,-0.1239,7.5856,1590579075,N
0,2061182,7.0086,-0.2297,6.8411,1.6100,7.9100,0.8400,999.0593,6.2116,-0.1401,7.5873,1590579075,N
0,2062242,6.9535,-0.0550,7.0277,4.6900,7.5600,1.6100,999.0591,5.5499,-0.0976,8.0845,1590579076,N
0,2064028,6.8961,-0.3182,7.2168,0.4200,3.2900,0.2100,999.0591,5.9593,-0.1422,7.7870,1590579076,N
0,2066328,6.8865,-0.2560,7.1569,0.4200,-1.1900,-1.5400,999.0594,6.2485,-0.1575,7.5566,1590579076,N
0,2068356,6.9272,-0.2728,7.1043,3.5000,1.2600,-0.4900,999.0596,6.1543,-0.1581,7.6335,1590579076,N
0,2065955,6.8650,-0.1101,6.9846,-1.8900,1.4700,-0.0700,999.0596,6.4171,-0.1598,7.4139,1590579076,N
0,2064950,6.8842,-0.1771,7.1521,5.6000,1.1900,-2.3100,999.0596,6.0827,-0.1210,7.6913,1590579076,N
0,2065286,6.9918,-0.0215,7.0493,0.5600,0.7000,-1.6100,999.0601,6.1601,-0.0915,7.6299,1590579076,N
0,2066367,7.0564,0.3206,7.0110,0.4900,3.5000,0.9100,999.0594,9.4327,-0.0276,2.6820,1590579076,N
0,2067912,6.8243,0.0263,7.4249,0.4900,4.4100,-0.2100,999.0591,9.3112,-0.0143,3.0776,1590579076,N
0,2069014,6.5204,-1.0576,8.2265,-19.8100,-11.5500,-1.3300,999.0583,7.2587,-0.2891,6.5878,1590579076,N
0,2065938,6.8435,-1.3496,7.8796,-50.1900,-54.7400,-23.6600,999.0573,8.2348,-0.5197,5.2998,1590579077,N
0,2051019,7.7767,-0.6532,5.3886,-36.7500,-61.0400,-51.8000,999.0563,9.1172,-0.2127,3.6057,1590579077,N
0,2039914,8.5831,-0.2728,4.0367,-49.6300,-27.0200,-44.7300,999.0558,9.4460,0.0631,2.6342,1590579077,N
0,2031081,8.6237,0.3781,4.3286,-21.8400,4.2700,-29.3300,999.0554,9.5872,0.3383,2.0350,1590579077,N
0,2023515,8.9850,-0.4522,4.9436,-37.7300,12.3200,-17.0800,999.0548,9.5197,0.2238,2.3442,1590579077,N
0,2017497,8.0566,-0.6413,5.4078,-55.8600,-31.8500,26.6000,999.0544,9.3295,-0.2990,3.0069,1590579077,N
0,1998123,9.3009,-0.5743,4.3023,-4.2000,-32.9700,-25.6200,999.0554,9.5109,-0.0909,2.3884,1590579077,N
0,1957800,9.5880,-0.3494,3.8644,0.1400,-8.8900,1.7500,999.0557,9.5120,-0.1390,2.3819,1590579077,N
0,1935771,9.1095,-1.1079,4.0295,-3.5000,0.9800,0.2100,999.0571,9.4003,-0.3469,2.7720,1590579077,N
0,1919823,9.0736,-0.7274,3.7304,16.1000,9.2400,-18.5500,999.0588,9.4347,-0.2405,2.6645,1590579077,N
0,1918020,8.4179,0.8638,4.6636,70.6300,42.0000,16.5200,999.0601,9.3824,-0.0254,2.8532,1590579078,N
0,1936650,8.4323,1.0122,5.0680,46.2000,17.1500,-7.6300,999.0613,8.5610,0.3498,4.7705,1590579078,N
0,1951985,9.3200,0.9093,5.8265,35.7700,46.4800,-19.1800,999.0623,8.2501,0.6848,5.2572,1590579078,N
0,1964437,5.4461,2.9599,8.3342,140.4200,24.9900,-14.5600,999.0632,7.8274,1.8186,5.6210,1590579078,N
0,1967615,6.2788,2.0124,7.6738,72.9400,42.9100,6.3700,999.0648,7.4931,2.1823,5.9382,1590579078,N
0,1972521,8.7290,1.1414,3.1705,57.3300,12.6700,76.3000,999.0652,8.3028,1.6770,4.9419,1590579078,N
0,1977832,8.3079,2.5675,1.8760,33.3900,-119.4900,28.9100,999.0650,9.0996,1.5830,3.2957,1590579078,N
0,1982344,12.3470,2.5484,3.2136,19.2500,-29.6800,-12.1800,999.0640,9.1911,1.7035,2.9652,1590579078,N
0,1985256,8.5831,1.0193,3.0796,54.6000,-16.5900,-16.9400,999.0637,9.2139,1.7899,2.8410,1590579078,N
0,1988169,10.4542,2.8522,-0.5743,-84.8400,-30.5900,-48.4400,999.0633,9.2189,2.0768,2.6209,1590579078,N
0,1982773,9.1525,5.4580,0.6891,-7.2800,7.9800,-49.0700,999.0629,8.9833,2.9825,2.5642,1590579079,N
0,1971450,8.1188,4.9986,1.8951,-35.1400,21.2800,-12.2500,999.0624,8.7600,3.4243,2.7762,1590579079,N
0,1964352,8.5735,3.2949,2.8570,-25.4100,-4.0600,4.2000,999.0625,8.7896,3.2964,2.8368,1590579079,N
0,1961772,8.6931,3.9147,2.6177,-10.9900,2.7300,17.7800,999.0633,8.8243,3.2434,2.7896,1590579079,N
0,1960098,8.9827,3.4289,3.7089,-13.5100,1.4700,7.9800,999.0634,8.7971,3.1603,2.9654,1590579079,N
0,1958998,9.0640,4.0175,2.5149,-6.9300,1.4000,4.1300,999.0637,8.7973,3.2439,2.8730,1590579079,N
0,1959225,8.7745,3.5964,3.1226,-6.0900,0.6300,-3.1500,999.0649,8.7486,3.3104,2.9452,1590579079,N
0,1955539,8.6668,4.1252,2.1033,7.0700,-3.3600,-6.1600,999.0657,8.7318,3.5198,2.7455,1590579079,N
0,1951560,8.5280,3.6491,3.0508,-2.3100,-0.9100,4.0600,999.0674,8.7195,3.5079,2.7992,1590579079,N
0,1950400,8.8726,3.6873,2.8164,-7.9100,0.8400,3.1500,999.0686,8.7256,3.4823,2.8120,1590579079,N
0,1950360,9.1717,3.4744,2.5723,-4.2000,7.0700,2.6600,999.0694,8.7392,3.4533,2.8054,1590579080,N
0,1951202,8.5041,3.7735,3.3739,-9.1000,3.8500,5.8100,999.0704,8.6892,3.4555,2.9542,1590579080,N
0,1952934,8.7386,3.6084,2.8499,1.0500,0.2100,0.7000,999.0707,8.6891,3.4796,2.9262,1590579080,N
0,1951698,9.1023,3.3882,2.6441,-11.1300,9.2400,-1.1900,999.0703,8.6870,3.4547,2.9615,1590579080,N
0,1948286,8.2026,3.7089,3.5964,-8.8200,4.9700,3.1500,999.0696,8.6071,3.4855,3.1526,1590579080,N
0,1947501,8.8893,3.1944,3.5486,-2.0300,-2.0300,0.9100,999.0689,8.6281,3.3888,3.2004,1590579080,N
0,1948046,8.6405,3.5007,3.4241,-8.8900,4.0600,0.9100,999.0676,8.5967,3.3808,3.2921,1590579080,N
0,1949024,8.6453,2.9599,3.6897,-11.5500,7.7700,1.4000,999.0663,8.5738,3.2697,3.4596,1590579080,N
0,1950486,8.6261,3.4074,3.6514,-2.1700,6.7200,-2.8000,999.0654,8.5164,3.3192,3.5530,1590579080,N
0,1949952,8.1906,3.4074,3.9027,-0.3500,1.4000,-0.1400,999.0652,8.4654,3.3506,3.6443,1590579080,N
0,1947369,8.4658,3.1322,4.0152,-1.7500,-0.0700,3.9900,999.0655,8.4718,3.2676,3.7044,1590579081,N
0,1946813,8.6118,3.8022,3.3117,-1.3300,-1.3300,-2.8700,999.0659,8.4668,3.3752,3.6183,1590579081,N
0,1947461,8.4538,2.8594,4.0487,-1.1900,5.1100,0.1400,999.0669,8.4479,3.2805,3.7472,1590579081,N
0,1948672,8.3510,3.3500,3.5127,8.8200,-5.6000,2.8000,999.0676,8.4920,3.2978,3.6306,1590579081,N
0,1950079,8.8774,3.3308,3.6514,9.3100,-0.2100,0.7000,999.0677,8.5125,3.3051,3.5754,1590579081,N
0,1950134,8.7553,3.2877,3.5988,7.2800,-4.0600,-0.8400,999.0671,8.5381,3.3057,3.5134,1590579081,N
0,1948082,8.4778,3.3763,3.7089,-9.1000,-0.6300,-0.8400,999.0669,8.5167,3.2931,3.5765,1590579081,N
0,1947488,8.6381,3.4074,3.2447,-4.6200,-1.4700,1.0500,999.0667,8.5469,3.2886,3.5080,1590579081,N
0,1947510,8.6189,3.3308,3.3930,0.7000,3.6400,0.6300,999.0670,8.5426,3.3022,3.5057,1590579081,N
0,1948405,8.5400,3.6491,3.7854,3.3600,6.2300,3.2900,999.0673,8.4928,3.3592,3.5719,1590579081,N
0,1950469,8.6070,3.2231,4.0247,0.1400,3.6400,1.1900,999.0665,8.4683,3.3192,3.6662,1590579082,N
0,1950094,8.5304,3.3811,3.8764,3.5700,3.5000,-1.8900,999.0657,8.4320,3.3559,3.7161,1590579082,N
0,1948409,8.4969,3.3428,3.7663,3.1500,-1.1200,0.2100,999.0641,8.4392,3.3543,3.7012,1590579082,N
0,1948819,8.5998,3.3476,3.7472,-0.2100,0.7000,-0.2100,999.0631,8.4410,3.3452,3.7054,1590579082,N
0,1950079,8.4945,3.3069,3.7854,2.7300,1.5400,0.6300,999.0622,8.4375,3.3413,3.7169,1590579082,N
0,1951836,8.5783,3.3667,3.8883,0.4200,0.9800,0.6300,999.0619,8.4309,3.3324,3.7397,1590579082,N
0,1953241,8.5591,3.2207,3.6275,-17.5700,5.1800,1.4000,999.0620,8.4306,3.2539,3.8089,1590579082,N
0,1951542,8.4538,3.1920,4.2377,1.4700,2.0300,0.7700,999.0623,8.4022,3.2353,3.8866,1590579082,N
0,1950262,8.5232,3.0604,4.0558,-0.3500,0.7000,0.9100,999.0635,8.4079,3.1867,3.9143,1590579082,N
0,1950481,8.5376,3.1872,4.0534,0.5600,1.6800,1.2600,999.0635,8.4038,3.1725,3.9347,1590579082,N
0,1951540,8.5687,3.0843,4.2066,-0.7700,0.1400,-0.4200,999.0637,8.3962,3.1419,3.9751,1590579083,N
0,1952959,8.6620,3.0365,4.1348,-7.2100,-1.5400,-2.2400,999.0641,8.3979,3.0950,4.0083,1590579083,N
0,1953316,8.6620,3.3165,3.5414,-36.4700,5.8800,-6.0900,999.0648,8.3582,3.0749,4.1056,1590579083,N
0,1950939,7.9801,3.8788,3.3212,-0.7700,15.0500,13.1600,999.0643,8.3447,3.1932,4.0422,1590579083,N
0,1947839,9.0999,2.1870,5.5202,-68.2500,54.7400,58.8700,999.0643,8.3061,2.4464,4.6038,1590579083,N
0,1947352,9.3320,4.4172,6.2381,164.2900,33.8800,73.5000,999.0643,8.4741,2.7152,4.1217,1590579083,N
0,1950199,8.9707,2.6871,5.0656,51.3100,46.0600,143.9200,999.0637,8.7884,1.8323,3.9468,1590579083,N
0,1956683,7.5063,-0.2632,4.8144,30.2400,57.6100,206.6400,999.0626,9.1651,-0.1522,3.4854,1590579083,N
0,1964603,0.6628,-1.2108,3.9840,-26.6700,118.7900,233.7300,999.0618,8.4610,-2.6950,4.1617,1590579083,N
0,1981830,-2.4455,-1.5529,6.3817,-18.8300,34.5800,72.1000,999.0607,7.2008,-4.2299,5.1408,1590579083,N
0,1999317,-0.1149,-5.5155,7.9681,75.3200,92.4700,31.9900,999.0604,4.7432,-4.0415,7.5722,1590579084,N
0,2013930,4.2018,-6.5635,11.6746,112.4200,168.7000,27.7900,999.0615,1.0705,0.7533,9.7189,1590579084,N
0,2028270,-2.7852,-1.9621,13.3113,-8.8900,-10.3600,48.7200,999.0628,-0.0390,1.8822,9.6242,1590579084,N
0,2034516,-1.2275,-4.6780,7.2455,-39.7600,-13.8600,39.6200,999.0633,-0.4022,4.1684,8.8675,1590579084,N
0,2038129,-0.3206,-5.1159,7.9896,-0.9800,22.3300,20.4400,999.0638,-0.6607,9.7337,0.9944,1590579084,N
0,2041573,-2.1535,-3.5557,10.4806,9.5900,3.0100,11.6900,999.0652,-1.3610,-7.2378,6.4755,1590579084,N
0,2043859,-1.8114,-3.1561,8.7194,-22.1200,-4.4100,15.7500,999.0669,-0.6825,-2.1360,9.5468,1590579084,N
0,2046003,-1.4524,-4.0463,9.0401,8.0500,2.1700,2.4500,999.0693,-0.8212,-2.4330,9.4645,1590579084,N
0,2046776,-1.7874,-3.9817,9.1525,6.9300,-4.0600,-19.3900,999.0718,-0.9153,-2.7386,9.3719,1590579084,N
0,2048284,-1.4764,-3.5174,9.1789,-8.1900,-6.0900,-16.2400,999.0751,-0.9457,-2.9653,9.2996,1590579084,N
0,2050737,-1.2275,-3.3858,8.4610,-28.0000,-7.0000,5.7400,999.0776,-0.9926,-3.1979,9.2173,1590579085,N
0,2052184,-1.4381,-3.4074,9.2243,13.2300,5.3200,-3.9900,999.0798,-1.0951,-3.1969,9.2060,1590579085,N
0,2053870,-1.3735,-3.8788,10.2700,-39.8300,-17.2200,-6.0200,999.0809,-0.9925,-3.4028,9.1436,1590579085,N
0,2056170,-0.3565,-4.3956,7.5446,2.6600,-5.6000,-12.6000,999.0820,-0.8531,-3.5136,9.1158,1590579085,N
0,2058229,-0.9212,-4.4459,9.0736,34.3700,14.7700,-5.5300,999.0839,-0.9392,-3.6339,9.0600,1590579085,N
0,2059061,-1.1988,-4.5631,8.3749,3.7800,-4.9000,-3.9900,999.0858,-0.9474,-3.7754,9.0010,1590579085,N
0,2059521,-1.0026,-3.9290,9.1645,13.6500,5.1100,-1.1200,999.0876,-0.9799,-3.7545,9.0063,1590579085,N
0,2060802,-0.9069,-3.9505,8.9563,4.2000,1.1200,1.5400,999.0892,-0.9735,-3.7624,9.0037,1590579085,N
0,2062274,-0.9715,-4.2018,8.9324,3.4300,1.0500,0.7000,999.0909,-0.9779,-3.8227,8.9778,1590579085,N
0,2063708,-0.9882,-4.0128,8.9827,-0.5600,0.7700,1.4700,999.0928,-0.9877,-3.8586,8.9614,1590579085,N
0,2064467,-1.0217,-4.0965,8.8941,-0.7700,0.4200,1.3300,999.0944,-1.0003,-3.9056,8.9396,1590579086,N
0,2065191,-0.9093,-4.3621,8.8367,6.5100,0.0700,-4.6900,999.0956,-0.9665,-3.9712,8.9144,1590579086,N
0,2068785,-1.0074,-3.4983,9.0855,5.4600,0.2800,-0.5600,999.0956,-0.9731,-3.8332,8.9739,1590579086,N
0,2071594,-0.8112,-3.9194,9.0090,1.7500,-1.5400,-1.1200,999.0948,-0.9246,-3.8200,8.9846,1590579086,N
0,2074446,-0.9763,-3.8692,9.0066,14.2800,-5.0400,-10.4300,999.0941,-0.8623,-3.7065,9.0382,1590579086,N
0,2078044,-0.9763,-3.3236,9.0520,-13.9300,-11.2000,-12.1100,999.0932,-0.7870,-3.6541,9.0663,1590579086,N
0,2079600,-0.4427,-4.0869,8.5567,8.9600,-2.7300,-29.4000,999.0916,-0.6359,-3.8966,8.9768,1590579086,N
0,2082342,-0.3900,-4.0056,9.2937,-12.1100,-10.0800,-24.5700,999.0899,-0.4601,-4.0676,8.9114,1590579086,N
0,2085446,0.0263,-3.9673,8.6429,-8.1200,-8.8900,-21.4200,999.0894,-0.2503,-4.2913,8.8143,1590579086,N
0,2087548,1.1366,-5.1398,8.8343,-17.7100,-12.1100,-21.1400,999.0899,0.1473,-4.6588,8.6281,1590579086,N
0,2088125,1.6869,-5.1159,8.7123,-12.1100,-12.2500,-19.8800,999.0901,0.5758,-4.8089,8.5272,1590579087,N
0,2087496,1.3232,-4.0534,8.5567,4.7600,-5.4600,-19.9500,999.0914,0.8252,-4.4908,8.6788,1590579087,N
0,2083988,1.7252,-4.4674,8.9013,-4.4800,-7.2100,-10.9200,999.0936,1.0782,-4.5168,8.6375,1590579087,N
0,2081660,1.6965,-4.6493,8.4514,0.6300,-2.5200,-8.4000,999.0949,1.2415,-4.5214,8.6131,1590579087,N
0,2080403,1.7085,-4.7067,8.3127,-4.0600,-0.2100,-7.7700,999.0959,1.3644,-4.5629,8.5725,1590579087,N
0,2078766,1.8473,-5.4939,8.6022,-7.9800,-1.8200,4.4100,999.0974,1.4488,-4.8059,8.4246,1590579087,N
0,2078010,1.8353,-4.6636,8.4108,-2.7300,0.9800,-0.2100,999.0990,1.5229,-4.7913,8.4199,1590579087,N
0,2075265,1.8520,-4.8455,8.1093,-11.0600,-4.6200,1.4700,999.1005,1.6319,-4.9575,8.3024,1590579087,N
0,2071080,1.9980,-5.2594,8.4203,-8.1900,-12.6700,-7.4200,999.1008,1.8079,-5.1046,8.1759,1590579087,N
0,2073123,2.1153,-5.6351,7.8580,-12.6700,-7.5600,2.8700,999.1012,1.9146,-5.3689,7.9800,1590579087,N
0,2074305,2.2205,-5.3791,7.7408,-4.1300,-3.9200,-2.7300,999.1017,2.0185,-5.4259,7.9155,1590579088,N
0,2075671,2.1559,-5.5370,8.0471,-1.7500,0.8400,0.2800,999.1021,2.0324,-5.4354,7.9055,1590579088,N
0,2076673,2.1918,-5.4867,7.8939,-0.7000,0.8400,-1.4700,999.1024,2.0624,-5.4315,7.9003,1590579088,N
0,2072320,2.1679,-5.5537,7.8150,-3.5700,0.9800,-0.5600,999.1027,2.0810,-5.4705,7.8685,1590579088,N
0,2069054,2.2205,-5.7284,7.8509,-0.2800,-0.6300,-1.1900,999.1033,2.1105,-5.5033,7.8377,1590579088,N
0,2070001,2.2181,-5.5585,7.9179,2.3100,1.4000,-1.7500,999.1035,2.1229,-5.4665,7.8601,1590579088,N
0,2071456,2.2373,-5.5155,7.9131,0.8400,-0.4900,-0.0700,999.1042,2.1442,-5.4623,7.8572,1590579088,N
0,2073553,2.2373,-5.5466,7.8221,-0.5600,-1.6100,0.7700,999.1036,2.1686,-5.4927,7.8293,1590579088,N
0,2074969,2.2469,-5.5394,7.8915,-0.8400,-0.8400,-0.2100,999.1027,2.1866,-5.5014,7.8182,1590579088,N
0,2071052,2.2684,-5.5202,7.8461,0.3500,-0.2100,0.3500,999.1019,2.2004,-5.5000,7.8153,1590579088,N
0,2069371,2.2134,-5.4724,7.9179,1.1900,0.1400,-0.9100,999.1014,2.2016,-5.4725,7.8343,1590579089,N
0,2070374,2.2756,-5.4915,7.8652,-0.2800,-0.0700,-0.2100,999.1013,2.2154,-5.4718,7.8308,1590579089,N
0,2071412,2.2493,-5.4939,7.9179,0.5600,-0.8400,-0.2100,999.1010,2.2237,-5.4659,7.8326,1590579089,N
0,2073240,2.2804,-5.4485,7.8987,-0.2800,-0.2800,-0.2100,999.1019,2.2352,-5.4586,7.8344,1590579089,N
0,2074895,2.2588,-5.5442,7.8461,0.6300,-0.2800,-0.1400,999.1028,2.2389,-5.4650,7.8289,1590579089,N
0,2071304,2.2588,-5.5083,7.9202,0.0700,-0.0700,-0.0700,999.1046,2.2389,-5.4619,7.8311,1590579089,N
0,2069750,2.2851,-5.5466,7.8245,1.1900,0.0700,-0.7000,999.1061,2.2471,-5.4602,7.8299,1590579089,N
0,2071546,2.2708,-5.4891,7.9179,0.4900,-0.6300,0.4200,999.1077,2.2496,-5.4581,7.8307,1590579089,N
0,2073859,2.2564,-5.4532,8.0040,0.4900,-0.1400,0.5600,999.1089,2.2432,-5.4423,7.8435,1590579089,N
0,2075925,2.2229,-5.4197,7.9346,0.4900,-0.4900,0.7000,999.1100,2.2368,-5.4347,7.8506,1590579089,N
0,2077768,2.2588,-5.4580,7.9035,0.1400,0.4900,-0.2100,999.1110,2.2360,-5.4278,7.8556,1590579090,N
0,2075413,2.2636,-5.4915,7.9537,0.5600,-0.0700,-0.2100,999.1111,2.2369,-5.4224,7.8590,1590579090,N
0,2073229,2.1823,-5.5298,7.9035,0.5600,-0.0700,-0.1400,999.1118,2.2228,-5.4302,7.8576,1590579090,N
0,2073766,2.2875,-5.5322,7.9107,0.2100,-0.2100,0.0700,999.1117,2.2314,-5.4380,7.8498,1590579090,N
0,2074724,2.2828,-5.5418,7.9035,-0.2800,-0.1400,0.0700,999.1125,2.2374,-5.4494,7.8402,1590579090,N
0,2076406,2.2445,-5.4843,7.9131,0.6300,0.1400,-0.2800,999.1131,2.2349,-5.4408,7.8469,1590579090,N
0,2078256,2.1990,-5.5298,7.9896,1.0500,0.0700,-0.5600,999.1136,2.2217,-5.4304,7.8578,1590579090,N
0,2076308,2.2684,-5.5490,7.8939,1.1200,-0.1400,-0.6300,999.1136,2.2286,-5.4317,7.8550,1590579090,N
0,2073388,2.3067,-5.5131,7.8532,-0.1400,0.1400,-0.6300,999.1133,2.2429,-5.4380,7.8465,1590579090,N
0,2073740,2.2325,-5.4820,7.8844,-0.1400,-0.0700,0.1400,999.1129,2.2385,-5.4431,7.8442,1590579090,N
0,2074779,2.2181,-5.5537,7.9609,0.6300,-0.1400,-0.1400,999.1129,2.2287,-5.4440,7.8464,1590579091,N
0,2076502,2.2732,-5.4843,7.9202,0.8400,0.2100,-0.4900,999.1124,2.2332,-5.4320,7.8534,1590579091,N
0,2079215,2.2516,-5.3839,7.7743,-0.0700,-1.1200,-4.7600,999.1123,2.2656,-5.4134,7.8570,1590579091,N
0,2079336,2.2947,-5.2499,8.0375,0.4900,-0.6300,-0.6300,999.1121,2.2747,-5.3706,7.8837,1590579091,N
0,2079258,2.3067,-5.3025,8.1715,3.2900,-0.9800,0.6300,999.1123,2.2732,-5.3203,7.9181,1590579091,N
0,2082035,2.3689,-5.3169,7.8748,3.3600,-1.2600,-3.5700,999.1124,2.3113,-5.2853,7.9306,1590579091,N
0,2084624,2.3856,-5.3384,7.9801,-1.3300,0.3500,-0.3500,999.1127,2.3221,-5.2925,7.9226,1590579091,N
0,2087009,2.3737,-5.4652,7.7934,-0.9800,-1.0500,0.4900,999.1124,2.3382,-5.3422,7.8844,1590579091,N
99,2088978,2.3593,-5.3049,7.9466,-1.4000,-0.2800,0.2800,999.1122,2.3427,-5.3441,7.8818,1590579091,N
99,2088954,2.3665,-5.3384,7.9872,0.2100,-0.2100,0.4200,999.1115,2.3429,-5.3352,7.8877,1590579091,N
99,2088357,2.4072,-5.4963,7.9466,-0.3500,-0.2800,0.3500,999.1113,2.3493,-5.3567,7.8713,1590579092,N
99,2091004,2.3928,-5.4963,7.8915,-1.8900,-1.1200,-0.2800,999.1124,2.3626,-5.3913,7.8436,1590579092,N
99,2093337,2.4670,-5.5083,7.8461,-1.2600,0.7700,-0.0700,999.1129,2.3754,-5.4093,7.8274,1590579092,N
99,2094386,2.4718,-5.3958,7.9298,0.9800,-2.1000,-2.3100,999.1138,2.4109,-5.3879,7.8313,1590579092,N
99,2095935,2.5507,-5.0560,8.0351,6.5100,-0.9100,-3.1500,999.1152,2.4503,-5.2602,7.9054,1590579092,N
99,2097543,2.4957,-5.1159,8.1021,2.1000,-0.8400,1.6800,999.1161,2.4524,-5.2188,7.9323,1590579092,N
98,2099570,2.4909,-5.4245,7.8078,0.2100,-1.8200,2.6600,999.1171,2.4610,-5.2788,7.8897,1590579092,N
98,2102445,2.4335,-5.5992,7.7719,-4.7600,-0.9800,3.5700,999.1178,2.4490,-5.3918,7.8168,1590579092,N
98,2104380,2.4191,-5.4341,7.9202,-4.6200,-1.3300,4.6900,999.1187,2.4324,-5.4536,7.7790,1590579092,N
98,2105553,2.3785,-5.7835,7.8365,1.6100,0.7000,0.9100,999.1199,2.4025,-5.4840,7.7668,1590579092,N
98,2106136,2.4526,-5.7404,7.7456,-1.8200,-1.9600,2.1000,999.1214,2.4110,-5.5532,7.7149,1590579093,N
98,2104988,2.4048,-5.8217,7.6546,1.2600,0.8400,-1.3300,999.1222,2.4041,-5.5743,7.7018,1590579093,N
98,2100909,2.3928,-5.5777,7.7743,-0.1400,0.5600,-0.4900,999.1226,2.3977,-5.5642,7.7111,1590579093,N
98,2100173,2.4024,-5.6734,7.7336,0.2100,0.3500,0.2800,999.1223,2.3913,-5.5750,7.7053,1590579093,N
98,2099875,2.4407,-5.6590,7.7599,0.3500,0.3500,-0.0700,999.1216,2.3940,-5.5754,7.7041,1590579093,N
98,2100185,2.4335,-5.5896,7.7384,0.2800,0.3500,-0.0700,999.1216,2.3977,-5.5690,7.7076,1590579093,N
98,2100596,2.4096,-5.7523,7.7073,0.9800,0.0700,-1.8900,999.1213,2.4012,-5.5760,7.7015,1590579093,N
98,2097806,2.4503,-5.6183,7.7025,0.9100,-0.2100,-0.4200,999.1224,2.4114,-5.5727,7.7007,1590579093,N
98,2094012,2.4383,-5.6088,7.7121,-0.2100,0.2100,-0.4200,999.1245,2.4155,-5.5740,7.6984,1590579093,N
98,2094119,2.4526,-5.6279,7.7504,0.7700,0.0700,-0.3500,999.1264,2.4194,-5.5680,7.7016,1590579093,N
98,2094920,2.4335,-5.6327,7.6929,0.0700,-0.7000,-0.4900,999.1276,2.4267,-5.5776,7.6924,1590579094,N
98,2096002,2.4694,-5.5442,7.7551,0.4900,-0.3500,-0.4900,999.1282,2.4369,-5.5620,7.7004,1590579094,N
99,2096703,2.5292,-5.5992,7.8006,0.3500,0.8400,-0.0700,999.1279,2.4440,-5.5485,7.7079,1590579094,N
98,2092762,2.5268,-5.6160,7.6690,-1.0500,-2.8000,-1.1900,999.1270,2.4816,-5.5738,7.6775,1590579094,N
98,2090847,2.5196,-5.6686,7.8365,-0.2800,0.3500,0.4200,999.1262,2.4762,-5.5739,7.6792,1590579094,N
99,2091855,2.4718,-5.5896,7.8413,-0.2800,-0.5600,0.6300,999.1251,2.4698,-5.5699,7.6842,1590579094,N
98,2092784,2.5149,-5.5585,7.8365,0.6300,-0.9800,0.4200,999.1251,2.4765,-5.5562,7.6920,1590579094,N
98,2094234,2.5101,-5.6782,7.7073,0.6300,0.4200,0.1400,999.1246,2.4751,-5.5645,7.6864,1590579094,N
98,2094915,2.5531,-5.5083,7.9202,-0.0700,-0.9800,0.2800,999.1246,2.4871,-5.5408,7.6996,1590579094,N
98,2092207,2.6225,-5.0154,8.3701,5.2500,-4.5500,0.5600,999.1245,2.5251,-5.3930,7.7916,1590579094,N
98,2095097,2.5268,-5.5107,7.8915,7.1400,1.4700,1.3300,999.1235,2.4981,-5.3491,7.8305,1590579095,N
99,2099025,2.6345,-5.3743,7.8078,7.0000,2.3800,-3.4300,999.1220,2.5154,-5.2715,7.8775,1590579095,N
98,2102405,2.5340,-5.3623,7.9131,-0.2100,-0.2800,1.0500,999.1212,2.5129,-5.2889,7.8666,1590579095,N
98,2104961,2.5196,-5.4269,7.9274,-1.6800,0.7700,0.3500,999.1208,2.5032,-5.3129,7.8535,1590579095,N
99,2106468,2.5890,-5.3097,7.9322,0.1400,0.1400,-0.4200,999.1200,2.5166,-5.2994,7.8584,1590579095,N
99,2106184,2.5149,-5.4796,7.8604,-0.3500,0.2100,0.4900,999.1198,2.5084,-5.3283,7.8414,1590579095,N
99,2106861,2.5268,-5.3527,7.9729,1.0500,-0.0700,0.2100,999.1196,2.5046,-5.3138,7.8525,1590579095,N
99,2107561,2.5723,-5.3934,7.9107,0.2800,-0.0700,-0.2800,999.1188,2.5138,-5.3150,7.8487,1590579095,N
99,2107874,2.5484,-5.4365,7.9035,-1.1200,-0.1400,-0.0700,999.1190,2.5168,-5.3347,7.8344,1590579095,N
99,2108096,2.5436,-5.3504,7.9059,0.3500,0.2100,-0.2100,999.1193,2.5175,-5.3254,7.8405,1590579095,N
99,2106158,2.5507,-5.3719,7.8628,-0.2800,-0.2100,0.5600,999.1199,2.5210,-5.3349,7.8329,1590579096,N
99,2103605,2.5292,-5.3886,7.8844,2.2400,-0.0700,0.5600,999.1211,2.5153,-5.3248,7.8416,1590579096,N
99,2105867,2.6154,-5.3910,7.8485,0.4200,-0.0700,-0.1400,999.1216,2.5324,-5.3274,7.8343,1590579096,N
99,2107501,2.5125,-5.4652,7.8341,-0.8400,-0.0700,-0.1400,999.1224,2.5266,-5.3528,7.8188,1590579096,N
99,2107870,2.5125,-5.4843,7.9322,-0.4200,0.1400,0.9100,999.1231,2.5118,-5.3685,7.8128,1590579096,N
99,2107549,2.4598,-5.5777,7.8054,1.1900,-2.5900,0.7000,999.1236,2.5094,-5.4070,7.7870,1590579096,N
99,2102603,2.5460,-5.4221,7.7575,0.7000,-0.2800,-1.0500,999.1244,2.5221,-5.4017,7.7866,1590579096,N
99,2098827,2.5125,-5.5011,7.8126,-0.6300,-0.4900,0.2800,999.1246,2.5190,-5.4218,7.7737,1590579096,N
99,2098075,2.5220,-5.4891,7.8820,-0.2100,-0.0700,0.3500,999.1246,2.5126,-5.4252,7.7734,1590579096,N
99,2097493,2.5364,-5.3958,7.8724,0.2800,0.0700,0.2800,999.1236,2.5121,-5.4108,7.7835,1590579096,N
99,2097316,2.4837,-5.5585,7.7934,-0.6300,-0.6300,0.2800,999.1223,2.5057,-5.4400,7.7652,1590579097,N
100,2098229,2.5340,-5.4676,7.6068,-0.2100,-0.4900,0.2800,999.1219,2.5189,-5.4625,7.7451,1590579097,N
100,2101093,2.5842,-5.1852,7.9920,1.9600,1.0500,-0.8400,999.1216,2.5245,-5.3767,7.8031,1590579097,N
100,2103651,2.5627,-5.4317,7.8580,0.2100,0.3500,-0.3500,999.1216,2.5267,-5.3736,7.8045,1590579097,N
100,2105844,2.5866,-5.4796,7.8461,-0.3500,0.3500,0.1400,999.1218,2.5307,-5.3845,7.7957,1590579097,N
100,2106920,2.5484,-5.5250,7.7456,-2.2400,1.1900,0.1400,999.1215,2.5260,-5.4188,7.7735,1590579097,N
100,2107098,2.4909,-5.5011,7.8269,-0.0700,0.4200,-0.5600,999.1210,2.5146,-5.4221,7.7749,1590579097,N
100,2105786,2.5125,-5.5681,7.7575,-0.2100,-0.4900,0.3500,999.1205,2.5127,-5.4493,7.7564,1590579097,N
100,2100180,2.5172,-5.5585,7.7791,0.1400,0.3500,-0.2100,999.1196,2.5081,-5.4583,7.7515,1590579097,N
100,2098733,2.5340,-5.5681,7.7432,0.4200,-0.0700,0.0700,999.1199,2.5100,-5.4711,7.7419,1590579097,N
100,2098803,2.5531,-5.4628,7.8532,0.3500,-0.0700,0.2100,999.1195,2.5132,-5.4579,7.7502,1590579098,N
100,2099454,2.5292,-5.4532,7.8915,1.0500,0.4200,-0.4200,999.1177,2.5088,-5.4329,7.7692,1590579098,N
100,2100634,2.5531,-5.4963,7.8221,0.7000,0.2100,-0.2800,999.1182,2.5123,-5.4283,7.7712,1590579098,N
100,2098802,2.5460,-5.5633,7.7719,0.7000,-0.1400,0.1400,999.1180,2.5145,-5.4423,7.7607,1590579098,N
100,2093908,2.4933,-5.4820,7.8317,0.7000,0.0700,-0.4200,999.1171,2.5072,-5.4347,7.7684,1590579098,N
100,2093169,2.5005,-5.5298,7.8078,-0.5600,-0.4900,0.4900,999.1158,2.5033,-5.4534,7.7566,1590579098,N
100,2093626,2.5747,-5.4197,7.8437,-1.4000,-1.0500,-1.8200,999.1149,2.5287,-5.4449,7.7543,1590579098,N
100,2094479,2.6465,-5.5202,7.6522,-2.0300,-3.0800,-3.0100,999.1140,2.5850,-5.4749,7.7145,1590579098,N
101,2096078,2.5890,-5.5872,7.7073,3.3600,2.5900,0.0700,999.1133,2.5638,-5.4552,7.7355,1590579098,N
101,2094226,2.5771,-5.4532,7.8389,4.2700,0.4200,-2.8000,999.1124,2.5667,-5.3993,7.7737,1590579098,N
101,2092617,2.6201,-5.3815,7.7551,3.7800,0.7700,-3.4300,999.1109,2.5829,-5.3495,7.8027,1590579099,N
101,2096546,2.5795,-5.2570,8.0566,-1.4000,5.1100,9.6600,999.1090,2.5072,-5.3480,7.8283,1590579099,N
101,2100036,2.6010,-5.4580,7.3484,19.0400,8.0500,0.6300,999.1078,2.4728,-5.2317,7.9174,1590579099,N
101,2103563,2.2229,-4.7641,8.5184,11.5500,3.3600,2.5200,999.1068,2.3743,-5.0328,8.0749,1590579099,N
101,2106240,2.3258,-4.9053,8.1260,-8.4700,-6.0200,5.1100,999.1057,2.3963,-5.1306,8.0066,1590579099,N
101,2106299,2.4144,-5.0225,8.2289,-9.0300,-9.9400,0.4200,999.1053,2.4649,-5.2150,7.9308,1590579099,N
101,2106489,2.5938,-5.5490,7.5254,-10.1500,-10.5000,7.4200,999.1047,2.5429,-5.4571,7.7411,1590579099,N
101,2109916,2.7302,-5.9701,7.4178,-7.3500,-4.4800,-1.1200,999.1041,2.6128,-5.6163,7.6027,1590579099,N
101,2113039,2.7159,-5.3647,7.7480,-5.2500,0.9100,-4.7600,999.1038,2.6511,-5.5734,7.6210,1590579099,N
101,2114748,2.7757,-5.3862,7.7288,-1.5400,-0.1400,-1.9600,999.1033,2.6853,-5.5356,7.6366,1590579099,N
101,2115720,2.7182,-5.6255,7.7599,1.4700,2.0300,-2.1000,999.1032,2.6781,-5.5063,7.6602,1590579100,N
101,2114617,2.7302,-5.4604,7.8317,2.8000,2.2400,-1.0500,999.1026,2.6698,-5.4488,7.7041,1590579100,N
101,2113103,2.7972,-5.6806,7.5111,18.2000,2.1700,-6.4400,999.1022,2.6909,-5.3246,7.7832,1590579100,N
101,2115460,2.8499,-4.2879,8.2768,21.4900,8.6100,3.0800,999.1023,2.6452,-4.9377,8.0494,1590579100,N
101,2118321,2.5555,-5.4437,7.7791,19.8800,7.0000,-1.4700,999.1019,2.5645,-4.8494,8.1288,1590579100,N
101,2120528,2.1703,-4.6038,9.1406,17.8500,18.9700,10.8500,999.1012,2.2729,-4.5626,8.3778,1590579100,N
102,2122019,1.5003,-4.7545,8.7841,38.0100,25.8300,27.5800,999.1015,1.8005,-4.2414,8.6568,1590579100,N
102,2122671,0.9835,-3.0006,9.3847,30.3100,41.3700,26.1100,999.1027,1.2238,-3.5147,9.0730,1590579100,N
102,2124326,0.5336,-3.0556,9.0592,40.0400,31.9900,16.5900,999.1043,0.7466,-2.7750,9.3762,1590579100,N
102,2126143,-0.1866,-3.1394,9.7914,12.1800,20.3000,41.2300,999.1051,0.3174,-2.4242,9.4970,1590579100,N
102,2127417,-0.4140,-2.4431,9.2459,-11.5500,7.4900,23.6600,999.1059,0.0698,-2.0628,9.5870,1590579101,N
102,2128642,-0.7537,-2.9958,9.0879,-30.8700,-8.8200,-1.6100,999.1057,-0.0102,-6.3735,7.4531,1590579101,N
102,2129129,-0.2943,-4.6181,9.5115,-19.3900,-5.7400,4.6900,999.1054,-0.0263,-2.5942,9.4573,1590579101,N
102,2127817,-0.7944,-4.7402,9.0951,1.3300,-4.1300,-9.0300,999.1051,-0.1194,-3.6272,9.1104,1590579101,N
102,2131802,-0.1149,-3.3954,9.1358,-7.1400,-0.7000,-1.8200,999.1047,-0.1103,-3.6347,9.1075,1590579101,N
102,2132950,-0.8064,-4.3119,8.8271,-0.7000,-1.0500,6.3700,999.1044,-0.2516,-3.7500,9.0578,1590579101,N
102,2134007,-0.0120,-4.4339,9.1478,10.4300,2.1000,-7.2800,999.1033,-0.2033,-4.0503,8.9288,1590579101,N
102,2135119,-0.4762,-3.8381,8.9922,4.3400,-1.4000,-3.9900,999.1031,-0.2382,-3.9735,8.9624,1590579101,N
102,2135831,-0.2441,-3.6921,9.0999,4.2000,2.1700,-0.9100,999.1041,-0.2531,-4.0276,8.9378,1590579101,N
102,2135225,-0.1986,-3.9290,9.2148,5.6000,-2.4500,-2.8000,999.1052,-0.2159,-3.8853,9.0016,1590579101,N
102,2134163,-0.3709,-3.3380,9.0209,3.8500,-2.3800,-1.4000,999.1060,-0.2271,-3.6183,9.1119,1590579102,N
102,2136166,-0.2560,-3.8070,9.1406,-4.8300,0.8400,3.9900,999.1065,-0.2479,-3.6484,9.0994,1590579102,N
102,2137309,-0.1819,-4.1827,9.0903,-1.9600,-0.4900,-0.7700,999.1069,-0.2296,-3.7342,9.0649,1590579102,N
102,2137435,-0.3087,-3.6706,9.2028,6.0900,1.8200,0.1400,999.1069,-0.2580,-3.7574,9.0546,1590579102,N
102,2136078,-0.1603,-3.5533,9.1430,2.8700,0.7700,-3.2900,999.1068,-0.2371,-3.8298,9.0248,1590579102,N
102,2135501,-0.4068,-3.7926,9.1573,-0.7000,-0.7000,0.5600,999.1071,-0.2657,-3.7535,9.0560,1590579102,N
103,2136370,-0.2345,-3.6921,9.1358,-0.7000,-0.1400,-0.2100,999.1089,-0.2579,-3.7422,9.0609,1590579102,N
102,2136894,-0.3039,-3.7424,9.1286,0.2100,-0.6300,-1.3300,999.1102,-0.2591,-3.7309,9.0655,1590579102,N
102,2137121,-0.2441,-3.7639,9.1095,0.8400,0.1400,-0.5600,999.1103,-0.2556,-3.7468,9.0590,1590579102,N
103,2137180,-0.2800,-3.7304,9.1645,1.3300,0.1400,-0.1400,999.1107,-0.2605,-3.7348,9.0639,1590579102,N
102,2135108,-0.2847,-3.6826,9.1262,-0.7700,-0.1400,0.2100,999.1106,-0.2646,-3.7150,9.0719,1590579103,N
102,2135544,-0.1986,-3.7472,9.1789,-0.8400,0.0700,0.6300,999.1093,-0.2530,-3.7111,9.0738,1590579103,N
102,2136974,-0.3374,-3.7807,9.1478,-1.4000,-0.6300,0.1400,999.1081,-0.2648,-3.6950,9.0800,1590579103,N
102,2137617,-0.3063,-3.8118,9.1549,0.6300,0.4900,0.6300,999.1063,-0.2773,-3.7163,9.0710,1590579103,N
102,2137833,-0.1842,-3.6060,9.2602,1.9600,-1.2600,-2.1000,999.1040,-0.2435,-3.6490,9.0992,1590579103,N
103,2136732,-0.2967,-3.7735,9.1765,0.9100,-0.0700,-1.8900,999.1024,-0.2490,-3.6957,9.0802,1590579103,N
102,2136022,-0.0359,-3.7831,9.1813,9.4500,-1.6800,-5.7400,999.1008,-0.1803,-3.6792,9.0885,1590579103,N
102,2137203,-0.2393,-3.6251,9.2937,11.5500,-2.9400,-4.5500,999.1000,-0.1576,-3.4689,9.1713,1590579103,N
103,2137441,-0.2369,-3.4624,9.1286,6.2300,2.3100,1.3300,999.1000,-0.1932,-3.5421,9.1426,1590579103,N
103,2138861,-0.1005,-3.5868,9.3727,0.2100,0.9800,2.8000,999.1002,-0.1872,-3.5283,9.1480,1590579103,N
103,2139639,-0.2249,-3.5773,9.2387,0.2100,0.2800,2.8000,999.1012,-0.2015,-3.4682,9.1707,1590579104,N
103,2137707,-0.1890,-3.5749,9.2172,0.9800,0.7700,0.2100,999.1019,-0.2050,-3.5203,9.1507,1590579104,N
103,2137407,-0.1699,-3.5246,9.2530,-0.2800,-0.3500,-0.1400,999.1030,-0.1947,-3.4989,9.1592,1590579104,N
103,2138251,-0.2369,-3.6634,9.2770,0.0700,-0.3500,-0.1400,999.1036,-0.1992,-3.4993,9.1589,1590579104,N
103,2138601,-0.1244,-3.5581,9.1884,0.6300,0.1400,-0.5600,999.1036,-0.1841,-3.5285,9.1480,1590579104,N
103,2139168,-0.2201,-3.5940,9.2315,0.6300,0.1400,0.0700,999.1042,-0.1920,-3.5359,9.1450,1590579104,N
103,2138472,-0.1795,-3.4792,9.3296,0.1400,-0.2100,0.1400,999.1044,-0.1875,-3.4948,9.1609,1590579104,N
103,2136892,-0.1842,-3.4839,9.2315,-0.1400,-0.5600,0.1400,999.1043,-0.1824,-3.4464,9.1793,1590579104,N
103,2137559,-0.1627,-3.5007,9.2076,-1.2600,-0.5600,-0.0700,999.1052,-0.1739,-3.4254,9.1873,1590579104,N
103,2139080,-0.2536,-3.6012,9.2483,0.2800,0.9800,0.5600,999.1058,-0.1980,-3.5058,9.1565,1590579104,N
103,2140268,-0.1292,-3.4720,9.2315,1.2600,0.2800,-0.2800,999.1068,-0.1855,-3.5132,9.1539,1590579105,N
103,2140644,-0.2201,-3.6395,9.3799,-1.4700,0.3500,1.5400,999.1080,-0.1972,-3.5151,9.1529,1590579105,N
103,2138428,-0.4283,-4.0247,9.0257,-3.0100,-0.0700,2.5900,999.1095,-0.2470,-3.5974,9.1197,1590579105,N
103,2138809,-0.0694,-3.5031,9.2818,-4.4100,0.2100,1.8900,999.1107,-0.2171,-3.5795,9.1275,1590579105,N
103,2141364,-0.2680,-3.7017,9.2698,-1.7500,0.5600,0.2100,999.1111,-0.2316,-3.6350,9.1051,1590579105,N
103,2142387,-0.2201,-3.6275,9.1860,0.8400,-0.0700,-0.2800,999.1122,-0.2277,-3.6232,9.1099,1590579105,N
103,2142829,-0.1866,-3.5964,9.2674,1.4700,0.2800,-0.3500,999.1124,-0.2201,-3.6210,9.1110,1590579105,N
103,2143006,-0.2106,-3.6203,9.2124,0.7700,-0.0700,-0.2800,999.1125,-0.2166,-3.6102,9.1154,1590579105,N
103,2140318,-0.2154,-3.6084,9.2195,1.0500,0.0700,-0.5600,999.1129,-0.2152,-3.6121,9.1146,1590579105,N
103,2140001,-0.1890,-3.6514,9.2578,0.1400,0.0700,-0.2100,999.1133,-0.2095,-3.6184,9.1123,1590579105,N
104,2140742,-0.2154,-3.5677,9.2578,1.9600,0.0700,-0.2800,999.1138,-0.2098,-3.5944,9.1218,1590579106,N
104,2140993,-0.2082,-3.6108,9.2602,0.7000,-0.0700,-0.2800,999.1140,-0.2077,-3.5847,9.1256,1590579106,N
104,2141354,-0.2154,-3.5581,9.2411,0.5600,0.0700,-0.4900,999.1137,-0.2083,-3.5843,9.1258,1590579106,N
104,2140837,-0.1842,-3.6060,9.2052,1.8200,0.1400,0.4900,999.1138,-0.2049,-3.5641,9.1337,1590579106,N
104,2138573,-0.1723,-3.5797,9.2554,-0.3500,-0.7000,0.4900,999.1144,-0.1934,-3.5031,9.1576,1590579106,N
104,2137870,-0.1484,-3.3404,9.1765,-0.6300,-1.1900,0.4200,999.1150,-0.1757,-3.3852,9.2022,1590579106,N
104,2137640,-0.2034,-3.4313,9.2722,-1.6800,0.3500,-1.1900,999.1155,-0.1819,-3.4588,9.1746,1590579106,N
104,2139833,-0.1819,-3.6419,9.2578,-1.1200,0.3500,-0.2100,999.1160,-0.1840,-3.5245,9.1496,1590579106,N
104,2141868,-0.1771,-3.6826,9.2363,-0.0700,-0.1400,-0.1400,999.1169,-0.1808,-3.5398,9.1437,1590579106,N
104,2141598,-0.1627,-3.5151,9.2124,0.7700,0.0700,-0.6300,999.1180,-0.1762,-3.5478,9.1407,1590579106,N
104,2139977,-0.2417,-3.6060,9.1669,-0.0700,-0.0700,-0.3500,999.1191,-0.1879,-3.5616,9.1351,1590579107,N
104,2140234,-0.2656,-3.4600,9.0209,-1.0500,-1.4700,-0.4900,999.1205,-0.1918,-3.4744,9.1686,1590579107,N
104,2141283,-0.1914,-3.1872,9.3512,3.4300,0.0700,-0.2800,999.1215,-0.1908,-3.3939,9.1987,1590579107,N
104,2143638,-0.2010,-3.5629,9.3081,-2.5900,0.4200,-0.2800,999.1216,-0.1956,-3.4731,9.1690,1590579107,N
104,2144680,-0.2512,-3.6921,9.1502,-3.8500,0.3500,-0.7700,999.1215,-0.2085,-3.5887,9.1240,1590579107,N
104,2143810,-0.2297,-3.6706,9.2602,0.2800,-0.1400,0.1400,999.1219,-0.2111,-3.5788,9.1279,1590579107,N
104,2142163,-0.1962,-3.6179,9.2028,0.2800,-0.0700,-0.0700,999.1224,-0.2071,-3.5755,9.1293,1590579107,N
104,2142571,-0.1675,-3.6514,9.1525,0.4900,0.1400,-0.1400,999.1236,-0.1998,-3.5954,9.1216,1590579107,N
104,2143054,-0.2249,-3.6132,9.1813,0.5600,-0.2100,-0.2800,999.1241,-0.2022,-3.5829,9.1265,1590579107,N
104,2143853,-0.2177,-3.6347,9.2411,0.9800,0.0700,-0.2800,999.1248,-0.2046,-3.5874,9.1246,1590579107,N
104,2144784,-0.2321,-3.5868,9.2052,0.9800,-0.1400,-0.2100,999.1251,-0.2080,-3.5694,9.1316,1590579108,N
104,2143968,-0.2225,-3.6108,9.2339,0.7000,-0.0700,0.1400,999.1248,-0.2100,-3.5557,9.1369,1590579108,N
104,2142590,-0.1795,-3.5868,9.1549,0.5600,0.1400,0.3500,999.1243,-0.2054,-3.5553,9.1372,1590579108,N
104,2142719,-0.2225,-3.5749,9.2172,0.8400,0.3500,0.0700,999.1238,-0.2112,-3.5663,9.1328,1590579108,N
104,2143150,-0.2297,-3.5844,9.1549,0.0700,-0.1400,0.0700,999.1227,-0.2138,-3.5567,9.1364,1590579108,N
104,2143499,-0.2465,-3.5055,9.2052,-0.8400,-0.2100,0.9800,999.1220,-0.2205,-3.5146,9.1526,1590579108,N
104,2143727,-0.2895,-3.8931,9.2219,-1.5400,0.4200,0.8400,999.1221,-0.2383,-3.5963,9.1203,1590579108,N
104,2142148,-0.1747,-3.5557,9.3464,7.4200,0.7700,-2.0300,999.1222,-0.2254,-3.6068,9.1165,1590579108,N
104,2139295,-0.2608,-3.4959,9.2530,-0.3500,-0.0700,0.8400,999.1219,-0.2332,-3.5537,9.1371,1590579108,N
104,2138775,-0.2656,-3.8166,9.1573,-2.2400,-0.6300,0.6300,999.1225,-0.2357,-3.5678,9.1316,1590579108,N
104,2139757,-0.1986,-3.5414,9.0808,-4.3400,-0.0700,-0.7000,999.1232,-0.2276,-3.6153,9.1131,1590579109,N
104,2144305,-0.1842,-3.7448,9.2267,0.2100,0.7000,0.4200,999.1246,-0.2247,-3.6586,9.0958,1590579109,N
104,2144339,-0.2249,-3.6491,9.0114,3.3600,0.5600,-2.1000,999.1257,-0.2247,-3.7217,9.0702,1590579109,N
104,2143249,-0.2991,-3.2973,9.3344,-2.6600,0.3500,2.5900,999.1268,-0.2480,-3.5977,9.1195,1590579109,N
104,2142364,-0.0933,-3.9745,9.4110,-0.9800,0.6300,1.6100,999.1273,-0.2251,-3.6421,9.1025,1590579109,N
104,2142841,-0.2201,-3.5246,9.2243,0.0700,-0.0700,-0.2100,999.1283,-0.2228,-3.6138,9.1138,1590579109,N
104,2143150,-0.2130,-3.7328,9.2698,-0.3500,-0.1400,0.0700,999.1292,-0.2192,-3.6162,9.1129,1590579109,N
104,2142898,-0.2584,-3.6395,9.1908,0.1400,-0.1400,-0.7700,999.1292,-0.2240,-3.6236,9.1099,1590579109,N
104,2143163,-0.2489,-3.6682,9.1454,-0.2100,-0.2800,-0.0700,999.1294,-0.2264,-3.6159,9.1129,1590579109,N
104,2142644,-0.2680,-3.6467,9.2315,0.8400,-0.2100,-0.0700,999.1285,-0.2321,-3.5957,9.1207,1590579109,N
104,2139121,-0.2704,-3.6443,9.1860,-0.4900,-0.4900,1.4700,999.1275,-0.2383,-3.5464,9.1398,1590579110,N
104,2138330,-0.1388,-3.6371,9.3009,1.6800,-0.0700,-0.9100,999.1259,-0.2152,-3.5494,9.1393,1590579110,N
104,2139224,-0.2943,-3.5198,9.1813,0.6300,0.0700,-0.9800,999.1245,-0.2295,-3.5622,9.1339,1590579110,N
104,2142904,-0.1172,-3.7065,9.2961,1.1900,0.9800,0.1400,999.1227,-0.2144,-3.6223,9.1106,1590579110,N
104,2145023,-0.2919,-3.5581,9.2195,-0.5600,-0.5600,-0.2800,999.1207,-0.2246,-3.5783,9.1278,1590579110,N
104,2145444,-0.1914,-3.6395,9.2650,-0.4900,-0.2800,0.7000,999.1182,-0.2166,-3.5505,9.1388,1590579110,N
103,2142351,-0.2010,-3.5031,9.2602,0.2800,-0.4200,-0.4900,999.1161,-0.2088,-3.5175,9.1517,1590579110,N
103,2142198,-0.2704,-3.6467,9.1980,0.4900,0.0700,-0.0700,999.1143,-0.2209,-3.5402,9.1427,1590579110,N
103,2142955,-0.2512,-3.6060,9.1693,0.2100,-0.0700,0.1400,999.1129,-0.2264,-3.5413,9.1421,1590579110,N
103,2143662,-0.2417,-3.6251,9.1932,-0.0700,-0.1400,0.0700,999.1108,-0.2281,-3.5436,9.1412,1590579110,N
103,2144510,-0.2584,-3.6251,9.2052,-0.0700,-0.2800,0.0700,999.1097,-0.2316,-3.5372,9.1436,1590579111,N
103,2143886,-0.2225,-3.6323,9.2578,-0.0700,-0.2100,0.1400,999.1087,-0.2277,-3.5311,9.1460,1590579111,N
103,2141556,-0.2369,-3.5486,9.2387,-0.2800,-0.2100,0.2800,999.1075,-0.2280,-3.5126,9.1532,1590579111,N
103,2141290,-0.2417,-3.6395,9.2267,-0.0700,-0.4200,0.2800,999.1068,-0.2274,-3.5007,9.1577,1590579111,N
103,2141442,-0.2752,-3.5438,9.1956,-0.2100,0.4200,1.1200,999.1062,-0.2422,-3.5092,9.1541,1590579111,N
103,2141756,-0.2776,-3.7113,9.2459,-0.4200,-0.0700,-0.2100,999.1049,-0.2475,-3.5428,9.1410,1590579111,N
103,2142493,-0.2393,-3.6634,9.2363,0.2100,0.2100,0.3500,999.1042,-0.2475,-3.5588,9.1348,1590579111,N
103,2141714,-0.2465,-3.6179,9.2315,0.1400,-0.1400,0.1400,999.1038,-0.2459,-3.5509,9.1379,1590579111,N
103,2139359,-0.2560,-3.5916,9.1693,0.4900,-0.0700,0.1400,999.1041,-0.2473,-3.5452,9.1400,1590579111,N
103,2139520,-0.2201,-3.6299,9.2411,-0.3500,-0.2800,-0.1400,999.1041,-0.2389,-3.5430,9.1411,1590579111,N
103,2140119,-0.3278,-3.6538,9.2387,0.3500,-0.0700,0.2100,999.1038,-0.2555,-3.5471,9.1391,1590579112,N
102,2140994,-0.2034,-3.6491,9.2124,0.2100,-0.1400,0.3500,999.1041,-0.2442,-3.5418,9.1415,1590579112,N
103,2142111,-0.2800,-3.5366,9.2865,0.4900,-1.1900,-0.9100,999.1041,-0.2393,-3.4824,9.1644,1590579112,N
103,2140752,-0.2465,-3.7256,9.2554,-0.9800,-0.7000,-0.2100,999.1037,-0.2341,-3.4919,9.1609,1590579112,N
102,2138621,-0.1316,-3.5486,9.2507,3.4300,0.9800,0.1400,999.1030,-0.2205,-3.5160,9.1520,1590579112,N
102,2139115,-0.2273,-3.5414,9.2387,0.9100,-0.3500,-0.9800,999.1027,-0.2167,-3.5084,9.1550,1590579112,N
102,2139986,-0.2154,-3.5940,9.2507,1.7500,-0.7000,-2.3800,999.1032,-0.2055,-3.5155,9.1526,1590579112,N
102,2141050,-0.2058,-3.6323,9.2363,0.2100,-0.7000,-0.4900,999.1038,-0.1985,-3.4952,9.1605,1590579112,N
102,2142210,-0.2130,-3.6562,9.1908,-3.5700,-0.7700,-0.9100,999.1046,-0.1939,-3.5236,9.1497,1590579112,N
102,2140056,-0.2082,-3.5749,9.2148,2.5200,0.9800,0.4900,999.1050,-0.2047,-3.5586,9.1359,1590579112,N
102,2138197,-0.1101,-3.5629,9.3177,0.5600,0.1400,0.4200,999.1060,-0.1871,-3.5433,9.1422,1590579113,N
102,2138727,-0.1962,-3.6586,9.2291,-1.0500,0.0700,-0.2100,999.1079,-0.1888,-3.5770,9.1291,1590579113,N
102,2139414,-0.1699,-3.5151,9.2219,-1.5400,-0.0700,-0.1400,999.1099,-0.1842,-3.5727,9.1309,1590579113,N
102,2140731,-0.1651,-3.6467,9.1621,0.0700,-0.0700,0.0700,999.1116,-0.1798,-3.5754,9.1299,1590579113,N
102,2141602,-0.2728,-3.7328,9.1454,0.6300,-0.7000,-0.4900,999.1124,-0.1913,-3.5646,9.1339,1590579113,N
102,2138717,-0.2441,-3.5988,9.2004,-1.6800,-0.2100,-0.4900,999.1136,-0.1992,-3.5797,9.1278,1590579113,N
102,2137646,-0.1340,-3.6897,9.1813,-0.6300,-0.2100,0.1400,999.1144,-0.1847,-3.5791,9.1283,1590579113,N
102,2138424,-0.2034,-3.6395,9.1932,-0.2800,-0.0700,0.1400,999.1151,-0.1879,-3.5793,9.1282,1590579113,N
102,2139088,-0.1651,-3.6921,9.1860,-1.8200,-1.1200,1.8200,999.1158,-0.1778,-3.4822,9.1659,1590579113,N
102,2140254,-0.1531,-3.6299,9.2195,1.1900,0.2100,-0.0700,999.1158,-0.1739,-3.5060,9.1569,1590579113,N
102,2140090,-0.2249,-3.7089,9.1023,0.7700,0.2100,0.0700,999.1165,-0.1856,-3.5557,9.1375,1590579114,N
102,2136763,-0.1986,-3.6778,9.2339,1.4700,-0.1400,0.0700,999.1172,-0.1864,-3.5463,9.1411,1590579114,N
101,2136220,-0.2369,-3.6323,9.1884,0.4200,-0.1400,-0.4200,999.1169,-0.1942,-3.5578,9.1364,1590579114,N
102,2137112,-0.1866,-3.6945,9.2698,-0.3500,-0.3500,-0.2100,999.1165,-0.1889,-3.5560,9.1373,1590579114,N
101,2138021,-0.1460,-3.5629,9.2291,1.1200,0.4900,0.0700,999.1144,-0.1838,-3.5736,9.1305,1590579114,N
101,2139451,-0.2608,-3.6754,9.1262,1.7500,0.8400,1.2600,999.1122,-0.2077,-3.6007,9.1193,1590579114,N
101,2138289,-0.1962,-3.5103,9.2937,-2.1000,-1.4700,-1.6800,999.1099,-0.1904,-3.5373,9.1445,1590579114,N
101,2135554,-0.1723,-3.6634,9.1573,-1.6100,-1.1900,-1.0500,999.1078,-0.1755,-3.5133,9.1540,1590579114,N
101,2136190,-0.1890,-3.5749,9.1884,-1.6100,-0.4200,-0.6300,999.1058,-0.1737,-3.5219,9.1508,1590579114,N
101,2137710,-0.1531,-3.6275,9.2148,-1.4700,-0.6300,0.4200,999.1033,-0.1653,-3.4864,9.1645,1590579114,N
101,2141112,-0.0574,-3.5868,9.2267,-0.2800,0.3500,-0.4200,999.1018,-0.1455,-3.5313,9.1476,1590579115,N
101,2143662,-0.1125,-3.5964,9.1741,0.4900,0.3500,0.3500,999.1008,-0.1422,-3.5537,9.1390,1590579115,N
101,2141408,-0.1651,-3.6012,9.2195,-0.1400,-0.1400,0.0700,999.0995,-0.1455,-3.5437,9.1429,1590579115,N
101,2139982,-0.1890,-3.6562,9.2435,-0.2800,0.2100,1.2600,999.0986,-0.1578,-3.5389,9.1445,1590579115,N
101,2140481,-0.0574,-3.5318,9.2674,-0.2800,0.4200,-0.4900,999.0976,-0.1399,-3.5859,9.1264,1590579115,N
101,2141117,-0.1651,-3.6826,9.1741,-0.2800,-0.2100,0.2100,999.0963,-0.1434,-3.5755,9.1305,1590579115,N
101,2142102,-0.2584,-3.5868,9.1860,3.7800,-0.4900,-0.9100,999.0959,-0.1599,-3.5321,9.1471,1590579115,N
101,2143431,-0.1507,-3.6012,9.2100,2.3800,1.2600,-0.9100,999.0961,-0.1657,-3.6539,9.0990,1590579115,N
101,2140493,-0.1603,-3.5414,9.2100,2.3800,0.3500,0.4200,999.0971,-0.1676,-3.6201,9.1125,1590579115,N
101,2138873,-0.2058,-3.7017,9.2124,0.0700,-0.3500,-0.1400,999.0980,-0.1716,-3.6014,9.1198,1590579115,N
101,2139594,-0.2512,-3.6227,9.3033,-0.9100,-0.4900,-0.1400,999.0989,-0.1826,-3.5647,9.1340,1590579116,N
101,2140263,-0.1412,-3.6012,9.2459,0.4200,-0.4900,-0.1400,999.0993,-0.1698,-3.5274,9.1487,1590579116,N
101,2141617,-0.1244,-3.5821,9.1837,0.9100,-0.0700,-0.4200,999.0991,-0.1591,-3.5334,9.1466,1590579116,N
101,2142324,-0.1268,-3.6395,9.2243,2.6600,-0.6300,-1.5400,999.0992,-0.1441,-3.5202,9.1519,1590579116,N
101,2138392,-0.1962,-3.5222,9.2435,1.4000,0.0700,-0.7700,999.0987,-0.1531,-3.5335,9.1467,1590579116,N
101,2137163,-0.1101,-3.5342,9.2195,1.0500,0.2100,-0.4200,999.0995,-0.1451,-3.5562,9.1380,1590579116,N
101,2137720,-0.1149,-3.5103,9.3033,0.7000,-0.2800,-0.7700,999.0991,-0.1350,-3.5370,9.1456,1590579116,N
101,2138738,-0.1603,-3.5868,9.2746,4.5500,0.7700,-0.8400,999.0992,-0.1435,-3.6032,9.1196,1590579116,N
101,2140087,-0.0837,-3.3069,9.3200,2.8700,-0.4200,-0.4900,999.0993,-0.1268,-3.5059,9.1577,1590579116,N
101,2141236,-0.0885,-3.3308,9.3966,1.5400,-0.2800,1.3300,999.0991,-0.1188,-3.3661,9.2101,1590579116,N
101,2138758,-0.0407,-3.0772,9.2818,4.9000,1.9600,-2.2400,999.0984,-0.1139,-3.6470,9.1026,1590579117,N
101,2138649,-0.1412,-3.3547,9.2889,1.3300,0.3500,-0.3500,999.0986,-0.1211,-3.6061,9.1187,1590579117,N
101,2140151,-0.1053,-3.2566,9.3368,0.9800,0.2800,-0.0700,999.0992,-0.1199,-3.5572,9.1380,1590579117,N
101,2141103,-0.1507,-3.4098,9.3655,-1.1200,-0.8400,0.4200,999.0991,-0.1197,-3.3979,9.1984,1590579117,N
101,2142399,-0.1603,-3.4074,9.3177,1.0500,0.6300,0.5600,999.0994,-0.1333,-3.4174,9.1910,1590579117,N
102,2142702,-0.1484,-3.4074,9.3392,0.7700,0.4200,0.2800,999.1000,-0.1396,-3.4257,9.1878,1590579117,N
101,2139710,-0.1795,-3.3858,9.3057,0.1400,0.4200,-0.5600,999.1008,-0.1495,-3.4611,9.1744,1590579117,N
101,2139272,-0.2154,-3.4552,9.2435,1.4000,0.9800,-0.0700,999.1019,-0.1697,-3.5154,9.1533,1590579117,N
102,2141732,-0.1699,-3.4098,9.2483,-0.9800,0.0700,1.0500,999.1024,-0.1722,-3.4680,9.1714,1590579117,N
102,2144062,-0.3230,-3.5079,9.3009,-1.3300,-0.7700,-0.0700,999.1028,-0.1952,-3.4173,9.1899,1590579117,N
102,2145604,-0.1053,-3.3835,9.3631,-0.8400,-0.7700,0.9100,999.1029,-0.1724,-3.3319,9.2217,1590579118,N
102,2144712,-0.2177,-3.2112,9.4205,-11.7600,-1.8200,2.8000,999.1032,-0.1735,-3.2142,9.2633,1590579118,N
102,2140723,-0.0766,-3.5701,9.2243,2.5900,1.1200,-1.7500,999.1036,-0.1597,-3.3533,9.2141,1590579118,N
102,2140957,-0.2321,-3.3476,9.2913,-1.5400,-0.7000,-0.7700,999.1032,-0.1672,-3.3324,9.2216,1590579118,N
102,2146012,-0.1101,-3.6323,9.2937,0.9800,0.3500,0.2100,999.1027,-0.1586,-3.3824,9.2035,1590579118,N
102,2147413,-0.2345,-3.3787,9.2554,0.7000,0.3500,-0.1400,999.1027,-0.1761,-3.4046,9.1950,1590579118,N
101,2148070,-0.1795,-3.5749,9.2339,0.8400,-0.1400,-0.7000,999.1025,-0.1739,-3.4330,9.1845,1590579118,N
102,2146862,-0.1388,-3.4241,9.2722,1.4000,0.1400,0.4900,999.1028,-0.1684,-3.4107,9.1929,1590579118,N
102,2143904,-0.1962,-3.4959,9.2674,0.4900,0.2100,0.7000,999.1029,-0.1764,-3.4133,9.1918,1590579118,N
102,2143315,-0.1364,-3.5031,9.2650,-0.3500,-0.5600,0.2100,999.1027,-0.1640,-3.3775,9.2052,1590579118,N
102,2143438,-0.1172,-3.3691,9.3272,1.1200,-0.5600,-0.7000,999.1027,-0.1484,-3.3315,9.2222,1590579119,N
102,2144449,-0.1914,-3.5318,9.2315,1.1200,0.2100,0.3500,999.1024,-0.1588,-3.3665,9.2093,1590579119,N
102,2145617,-0.1675,-3.4576,9.3200,0.5600,0.2100,0.1400,999.1024,-0.1619,-3.3832,9.2032,1590579119,N
102,2144360,-0.2154,-3.4265,9.2770,0.7000,0.2100,-0.3500,999.1018,-0.1732,-3.4059,9.1946,1590579119,N
102,2141305,-0.1866,-3.4313,9.2937,0.7000,-0.2800,-0.4200,999.1017,-0.1724,-3.3887,9.2010,1590579119,N
102,2141167,-0.1675,-3.4409,9.3464,0.4200,0.0700,-0.4200,999.1027,-0.1706,-3.4019,9.1961,1590579119,N
102,2142052,-0.2560,-3.4839,9.3057,0.0700,0.0700,0.0700,999.1046,-0.1876,-3.4112,9.1923,1590579119,N
102,2142914,-0.1507,-3.3595,9.3512,0.3500,-0.2100,-0.0700,999.1060,-0.1779,-3.3773,9.2050,1590579119,N
102,2144191,-0.2201,-3.5868,9.3464,-1.8900,-0.6300,0.5600,999.1073,-0.1817,-3.3641,9.2098,1590579119,N
102,2142553,-0.1747,-3.4170,9.1956,0.2100,0.0700,-0.7700,999.1077,-0.1794,-3.3965,9.1979,1590579119,N
102,2142960,-0.1172,-3.5031,9.3272,-1.5400,-0.4200,0.8400,999.1083,-0.1650,-3.3631,9.2105,1590579120,N
102,2147089,-0.0502,-3.4839,9.3535,1.2600,0.2800,-0.7000,999.1086,-0.1427,-3.4018,9.1966,1590579120,N
102,2148623,-0.0933,-3.5055,9.3655,0.1400,0.7000,0.3500,999.1079,-0.1387,-3.4602,9.1749,1590579120,N
102,2149534,-0.1436,-3.5557,9.4636,-3.0800,-1.1900,0.7700,999.1067,-0.1310,-3.3462,9.2172,1590579120,N
102,2149661,-0.0215,-3.4241,9.1502,1.8900,-1.1900,0.7700,999.1059,-0.1004,-3.1671,9.2806,1590579120,N
102,2147564,-0.2082,-3.3882,9.2507,-0.2100,0.9800,0.7700,999.1057,-0.1313,-3.3082,9.2309,1590579120,N
102,2149666,-0.0239,-3.5533,9.2267,2.2400,0.9800,1.2600,999.1049,-0.1198,-3.3678,9.2095,1590579120,N
102,2151575,-0.2345,-3.5103,9.2100,3.7100,1.4700,0.3500,999.1038,-0.1542,-3.4868,9.1645,1590579120,N
102,2152207,-0.1125,-3.3835,9.3679,3.0100,0.1400,-2.3100,999.1039,-0.1420,-3.5372,9.1454,1590579120,N
102,2152780,-0.0359,-3.1513,9.4875,-5.1800,-4.2000,-5.0400,999.1038,-0.0784,-3.2297,9.2592,1590579120,N
102,2152220,-0.2608,-3.5222,9.1382,-5.1800,-4.5500,-5.5300,999.1041,-0.0681,-2.9915,9.3390,1590579121,N
102,2149538,-0.2847,-3.3882,9.1597,0.0700,3.5700,2.5900,999.1042,-0.1456,-3.4436,9.1810,1590579121,N
103,2151741,0.0957,-3.9338,9.2148,7.0700,3.5700,-2.1700,999.1045,-0.1216,-3.9906,8.9572,1590579121,N
103,2153403,-0.2704,-3.3284,9.2124,0.1400,0.4900,-1.3300,999.1054,-0.1533,-3.8417,9.0216,1590579121,N
102,2154154,-0.1723,-3.5533,9.3607,-0.4900,0.4900,2.2400,999.1060,-0.1647,-3.7032,9.0791,1590579121,N
103,2154815,-0.1460,-3.4313,9.2818,0.6300,-0.3500,0.0700,999.1058,-0.1581,-3.6050,9.1186,1590579121,N
103,2154907,-0.1651,-3.5988,9.2746,-0.1400,-0.1400,0.4200,999.1044,-0.1587,-3.5656,9.1341,1590579121,N
103,2154057,-0.1101,-3.4433,9.2722,0.4900,-0.1400,-0.4200,999.1031,-0.1468,-3.5401,9.1442,1590579121,N
103,2154656,-0.1125,-3.4624,9.2937,-0.4200,-0.2100,0.1400,999.1027,-0.1383,-3.4988,9.1602,1590579121,N
103,2155241,-0.0909,-3.6132,9.4349,-0.1400,0.4200,0.9100,999.1035,-0.1334,-3.5099,9.1561,1590579121,N
103,2155280,-0.1388,-3.4863,9.1693,0.5600,-0.5600,-0.0700,999.1039,-0.1298,-3.4471,9.1799,1590579122,N
103,2154947,-0.1890,-3.3165,9.3416,-1.6800,0.2800,1.9600,999.1049,-0.1474,-3.3864,9.2022,1590579122,N
103,2155145,-0.1029,-3.6682,9.3751,-0.6300,-0.1400,0.5600,999.1062,-0.1380,-3.3922,9.2002,1590579122,N
103,2155441,-0.2010,-3.6395,9.3129,-1.6100,-0.1400,-2.3800,999.1089,-0.1446,-3.5125,9.1549,1590579122,N
103,2154151,-0.2010,-3.5246,9.2578,2.3100,0.8400,0.4200,999.1122,-0.1626,-3.5434,9.1427,1590579122,N
103,2155206,-0.1507,-3.7400,9.3081,0.7700,0.7700,0.4200,999.1144,-0.1663,-3.6083,9.1172,1590579122,N
103,2156957,-0.1771,-3.4911,9.2818,0.7700,0.1400,-0.2100,999.1160,-0.1687,-3.5863,9.1258,1590579122,N
103,2156887,-0.1292,-3.5916,9.2530,0.2800,0.0700,0.0700,999.1177,-0.1611,-3.5827,9.1274,1590579122,N
103,2155522,-0.0933,-3.5055,9.2172,0.9100,0.1400,-0.0700,999.1187,-0.1483,-3.5773,9.1297,1590579122,N
104,2156033,-0.1125,-3.5509,9.2842,0.2800,-0.1400,0.2100,999.1190,-0.1401,-3.5421,9.1435,1590579122,N
103,2156258,-0.1771,-3.5438,9.2076,0.4900,-0.1400,0.3500,999.1190,-0.1467,-3.5070,9.1569,1590579123,N
103,2156411,-0.1077,-3.5964,9.2530,0.4200,-0.2100,-0.0700,999.1187,-0.1368,-3.4953,9.1616,1590579123,N
104,2156799,-0.1555,-3.5653,9.2195,0.3500,-0.0700,-0.1400,999.1183,-0.1394,-3.4993,9.1600,1590579123,N
103,2154388,-0.1029,-3.5174,9.2937,1.4700,0.1400,-0.2100,999.1174,-0.1324,-3.5035,9.1585,1590579123,N
104,2153904,-0.1484,-3.5414,9.2507,0.2100,-0.1400,-0.2100,999.1166,-0.1337,-3.4961,9.1613,1590579123,N
104,2154530,-0.1220,-3.5007,9.3009,1.0500,-0.1400,0.0700,999.1158,-0.1299,-3.4625,9.1741,1590579123,N
103,2155369,-0.1005,-3.5007,9.2507,-0.0700,-0.1400,0.0700,999.1156,-0.1229,-3.4474,9.1799,1590579123,N
103,2156986,-0.1723,-3.5198,9.2842,-0.1400,-0.3500,-0.2100,999.1152,-0.1292,-3.4286,9.1869,1590579123,N
103,2156677,-0.1555,-3.4887,9.2602,-0.2100,-0.1400,-1.0500,999.1154,-0.1312,-3.4613,9.1745,1590579123,N
103,2154791,-0.0861,-3.4265,9.3224,-3.4300,-4.4100,-2.7300,999.1149,-0.0813,-3.0537,9.3187,1590579123,N
103,2156669,-0.2752,-3.6419,10.3848,-20.9300,-25.2000,-5.8100,999.1147,0.1423,-0.1518,9.8044,1590579124,N
104,2159417,0.4929,-4.9029,11.2032,-38.5700,-73.5000,-33.6700,999.1156,0.6558,-6.5386,7.2792,1590579124,N
104,2160291,1.9190,-5.3958,9.5378,-52.9900,-117.6700,-79.0300,999.1158,1.8718,-6.2824,7.2937,1590579124,N
104,2159573,3.9840,-5.6877,6.4271,-60.0600,-132.8600,-112.0700,999.1155,3.5364,-6.2636,6.6658,1590579124,N
104,2153711,6.4702,-3.5438,4.3621,-34.9300,-121.7300,-137.7600,999.1153,5.4719,-5.6496,5.8576,1590579124,N
104,2142047,8.3055,-2.2014,1.5577,-49.5600,-77.5600,-139.7200,999.1144,7.2293,-4.7705,4.5989,1590579124,N
104,2123423,8.4108,0.3182,2.0506,-25.5500,-40.0400,-134.8900,999.1144,8.5064,-3.0545,3.8055,1590579124,N
104,2104525,8.7601,2.6369,1.8760,4.0600,2.4500,-93.8700,999.1136,9.2833,-1.0075,2.9960,1590579124,N
104,2093250,8.8343,4.0247,2.7972,-52.1500,22.8900,-61.4600,999.1133,9.6452,0.3544,1.7366,1590579124,N
104,2088190,8.6118,4.6205,3.4385,-11.3400,-1.1900,-37.6600,999.1125,9.7177,1.2984,-0.2245,1590579124,N
104,2077148,8.6022,3.2423,3.0030,11.0600,-1.2600,-11.6900,999.1110,7.2267,1.2434,6.5115,1590579125,N
104,2069021,8.5376,4.5320,2.7470,-4.7600,2.1700,-6.3700,999.1092,7.9451,2.0080,5.3864,1590579125,N
105,2064232,8.6309,3.2901,3.4433,8.8200,-4.2700,-8.9600,999.1082,8.2242,2.3772,4.7835,1590579125,N
104,2060053,8.6477,4.5488,2.0770,-28.5600,-1.7500,-8.1200,999.1071,8.3847,2.7652,4.2685,1590579125,N
105,2055007,8.3916,4.0223,3.0485,-26.1100,4.7600,-1.4000,999.1064,8.3897,2.9426,4.1381,1590579125,N
105,2048819,8.2337,3.8524,3.4600,-6.9300,2.2400,-2.1000,999.1050,8.3769,3.1130,4.0382,1590579125,N
105,2039336,8.4060,3.9075,3.5509,9.3800,1.2600,-1.5400,999.1039,8.3774,3.2917,3.8928,1590579125,N
105,2031246,8.3653,4.4770,2.8331,7.0700,-2.5200,-0.2800,999.1029,8.4069,3.5224,3.6177,1590579125,N
105,2024334,8.1835,3.9936,3.6945,-31.7100,1.5400,0.8400,999.1014,8.3494,3.5097,3.7603,1590579125,N
105,2017967,8.5161,3.9697,3.5797,6.9300,-4.2700,1.0500,999.0995,8.3715,3.5811,3.6420,1590579125,N
105,2013387,8.7888,4.2568,2.6345,-4.8300,-3.9200,1.5400,999.0973,8.4437,3.6527,3.3959,1590579126,N
105,2005741,8.3964,3.8620,2.9264,-0.4900,-2.3100,-4.2000,999.0952,8.4504,3.7239,3.3005,1590579126,N
105,1995555,8.5089,4.2497,2.8116,0.6300,0.4900,0.2800,999.0934,8.4498,3.8163,3.1948,1590579126,N
105,1987735,8.4491,4.1109,3.0963,0.6300,3.1500,0.4900,999.0911,8.4251,3.8749,3.1894,1590579126,N
105,1981752,8.5424,3.9936,3.3715,-2.2400,-1.2600,0.9100,999.0891,8.4233,3.8636,3.2079,1590579126,N
105,1977352,8.3581,4.0941,3.1561,1.2600,-2.5200,0.9800,999.0872,8.4225,3.8953,3.1716,1590579126,N
105,1974174,8.5208,3.9888,3.1202,-0.4200,-1.0500,2.8700,999.0855,8.4415,3.8786,3.1414,1590579126,N
105,1966118,8.6429,3.7998,3.1944,-0.4900,-0.8400,3.8500,999.0832,8.4744,3.8170,3.1283,1590579126,N
105,1957155,8.6381,4.0678,2.9671,8.6800,1.9600,-3.7100,999.0814,8.4466,3.9165,3.0799,1590579126,N
105,1951323,8.3342,4.0032,3.6921,-4.6900,-1.6100,0.3500,999.0803,8.4116,3.9013,3.1930,1590579126,N
105,1947895,8.8606,3.7783,2.8522,11.9000,-10.4300,-1.7500,999.0793,8.4929,3.8776,3.0009,1590579127,N
105,1945982,8.4682,4.4411,2.5627,-0.7700,-6.5800,-4.1300,999.0792,8.4890,3.9821,2.8724,1590579127,N
105,1944079,8.4610,3.8142,2.9623,11.2000,0.2100,-1.4000,999.0796,8.4810,4.0047,2.8645,1590579127,N
105,1937433,8.4897,4.2712,2.7757,1.8900,-3.9200,-0.0700,999.0798,8.4832,4.0403,2.8075,1590579127,N
104,1931668,8.6046,3.8764,2.4455,-6.0900,-2.5200,0.2100,999.0805,8.5348,3.9798,2.7366,1590579127,N
105,1927879,8.6429,4.0271,2.8331,-0.6300,2.4500,-0.2800,999.0809,8.5205,3.9883,2.7685,1590579127,N
104,1925757,8.4251,4.2951,3.0508,-2.8000,8.1900,2.0300,999.0803,8.4546,4.0477,2.8821,1590579127,N
104,1925409,8.4467,4.0869,3.5174,-2.1000,1.4000,4.2700,999.0801,8.4326,4.0069,3.0009,1590579127,N
104,1925438,8.6381,3.6443,2.8618,13.7900,-4.2000,-1.8200,999.0803,8.4777,3.9819,2.9057,1590579127,N
104,1920995,8.5615,4.6851,2.4622,8.0500,-1.3300,-5.3200,999.0797,8.4324,4.1623,2.7823,1590579127,N
104,1917832,8.4060,4.2832,2.6369,4.2700,-0.6300,1.1900,999.0790,8.4333,4.1921,2.7342,1590579128,N
104,1916944,8.6022,4.2592,2.9336,-1.1900,-1.1900,-0.4200,999.0787,8.4324,4.1794,2.7563,1590579128,N
104,1917145,8.4969,4.0510,2.7135,-3.5700,1.1200,0.1400,999.0782,8.4459,4.1448,2.7672,1590579128,N
104,1918261,8.4347,4.2879,2.7230,-0.2800,0.0700,1.6100,999.0778,8.4440,4.1569,2.7548,1590579128,N
104,1916719,8.5950,4.1037,2.8618,-1.6800,1.4700,0.8400,999.0768,8.4490,4.1283,2.7826,1590579128,N
104,1912078,8.5184,4.2449,2.8618,-0.2800,2.1000,-0.0700,999.0763,8.4308,4.1488,2.8070,1590579128,N
105,1910017,8.4754,4.1659,2.9838,-3.9900,1.6100,0.9800,999.0767,8.4235,4.1284,2.8585,1590579128,N
104,1909890,8.6979,3.8836,3.0580,0.2100,0.7700,-0.2100,999.0776,8.4409,4.0687,2.8926,1590579128,N
104,1910570,8.5448,4.3669,2.7446,-4.0600,-1.1900,-1.4000,999.0785,8.4350,4.1036,2.8603,1590579128,N
104,1910999,8.3605,3.9697,3.4074,1.8900,-0.0700,-0.7000,999.0798,8.4088,4.0868,2.9599,1590579128,N
104,1907862,8.5041,4.2497,2.6632,0.9100,-3.5000,-1.1900,999.0808,8.4272,4.1124,2.8708,1590579129,N
104,1904048,8.5376,4.1252,3.0126,-3.2200,1.6100,0.6300,999.0812,8.4227,4.0931,2.9111,1590579129,N
104,1903542,8.5400,3.9458,3.2686,0.6300,0.1400,-0.1400,999.0812,8.4195,4.0559,2.9719,1590579129,N
104,1904504,8.5137,4.2377,2.7661,1.4700,-0.9100,-0.8400,999.0812,8.4217,4.0921,2.9156,1590579129,N
104,1906481,8.5256,4.2162,2.7805,-1.8900,1.6800,0.7700,999.0809,8.4224,4.1023,2.8993,1590579129,N
104,1907863,8.5232,4.0582,2.8881,4.1300,-1.0500,0.2100,999.0809,8.4339,4.0975,2.8724,1590579129,N
104,1905195,8.5065,4.2568,2.7254,-5.4600,4.1300,1.4700,999.0804,8.4258,4.1073,2.8822,1590579129,N
104,1903862,8.4371,4.0104,3.3954,0.9800,1.1900,0.9800,999.0801,8.4057,4.0797,2.9785,1590579129,N
104,1904956,8.4969,4.1061,3.0006,2.1700,-0.1400,-0.4900,999.0794,8.4045,4.0882,2.9702,1590579129,N
104,1906857,8.4945,4.1827,2.9671,2.7300,1.4000,0.7000,999.0787,8.3975,4.1077,2.9629,1590579129,N
104,1909379,8.4682,4.1228,3.1585,0.8400,1.4700,0.7700,999.0788,8.3865,4.1033,3.0002,1590579130,N
104,1908968,8.4706,3.9817,3.0963,0.1400,1.0500,0.2800,999.0784,8.3912,4.0768,3.0228,1590579130,N
104,1905384,8.4227,4.0295,3.1585,-0.4900,0.4900,0.1400,999.0784,8.3880,4.0621,3.0515,1590579130,N
104,1903896,8.5065,4.0678,3.1370,-1.4000,0.1400,-0.0700,999.0784,8.3893,4.0484,3.0659,1590579130,N
104,1904718,8.4323,4.1157,3.0652,-0.2800,1.8200,0.8400,999.0778,8.3827,4.0559,3.0741,1590579130,N
104,1907100,8.4682,4.0247,3.1968,1.4000,-0.4200,-0.0700,999.0774,8.3837,4.0456,3.0849,1590579130,N
104,1909914,8.5113,4.1324,3.0173,0.2800,-0.2800,-0.0700,999.0773,8.3888,4.0533,3.0610,1590579130,N
104,1907134,8.4634,4.1898,3.0867,0.2100,-0.2800,-0.0700,999.0779,8.3826,4.0700,3.0557,1590579130,N
104,1904038,8.5184,4.0487,3.0748,0.4200,-0.6300,-0.2800,999.0785,8.3917,4.0577,3.0472,1590579130,N
104,1904046,8.5280,4.0630,3.0748,-0.2100,0.1400,-0.2800,999.0787,8.3953,4.0502,3.0471,1590579130,N
104,1905211,8.4395,4.1061,3.1370,-0.2100,-0.0700,-0.2800,999.0795,8.3882,4.0551,3.0601,1590579131,N
104,1907537,8.4897,4.1252,3.1370,0.2800,-0.4200,-0.1400,999.0804,8.3857,4.0581,3.0630,1590579131,N
104,1908788,8.4443,4.0989,3.0413,0.1400,-0.2800,-0.2800,999.0812,8.3871,4.0628,3.0531,1590579131,N
104,1905571,8.4514,4.1085,3.0820,-0.6300,-0.0700,-0.0700,999.0811,8.3861,4.0630,3.0553,1590579131,N
104,1904095,8.4156,4.0798,3.0652,0.3500,-0.2100,-0.3500,999.0805,8.3852,4.0666,3.0532,1590579131,N
104,1904823,8.4969,4.1180,3.1107,-2.1000,0.4200,0.0700,999.0793,8.3842,4.0591,3.0658,1590579131,N
104,1906228,8.4299,3.9936,3.2638,1.4700,0.4200,0.1400,999.0784,8.3786,4.0458,3.0984,1590579131,N
104,1908208,8.4514,3.9697,3.1992,1.3300,-0.0700,0.2100,999.0778,8.3830,4.0284,3.1093,1590579131,N
104,1906546,8.4395,4.0487,3.1537,2.3800,-0.2800,-0.6300,999.0770,8.3793,4.0390,3.1054,1590579131,N
104,1903157,8.4562,4.0534,3.1561,2.1000,0.0700,0.0700,999.0760,8.3785,4.0421,3.1036,1590579131,N
104,1902589,8.4419,4.0941,3.1609,-0.8400,0.9800,0.8400,999.0756,8.3750,4.0389,3.1171,1590579132,N
104,1903433,8.5065,4.0510,3.1729,-1.3300,1.8900,0.8400,999.0756,8.3743,4.0260,3.1358,1590579132,N
104,1905418,8.4586,4.0654,3.1896,-0.7000,1.6800,0.8400,999.0759,8.3698,4.0224,3.1524,1590579132,N
104,1907655,8.4347,4.0104,3.2710,-0.2800,0.9800,0.7000,999.0766,8.3666,4.0099,3.1767,1590579132,N
104,1904716,8.4299,4.0415,3.2447,-0.1400,0.1400,0.2100,999.0773,8.3645,4.0074,3.1854,1590579132,N
104,1902419,8.4514,4.0439,3.1872,1.6800,-0.2800,-0.0700,999.0776,8.3666,4.0130,3.1727,1590579132,N
104,1902834,8.4443,3.9003,3.4170,6.9300,-2.7300,-1.4000,999.0781,8.3679,4.0083,3.1753,1590579132,N
104,1904751,8.4754,4.2329,2.8379,0.9100,-1.4700,-0.3500,999.0786,8.3809,4.0475,3.0901,1590579132,N
104,1907610,8.5089,4.0534,3.1083,-0.9800,1.3300,0.7700,999.0787,8.3844,4.0346,3.0975,1590579132,N
104,1908464,8.4802,4.0391,3.2327,-0.3500,0.0700,0.7700,999.0790,8.3852,4.0184,3.1163,1590579132,N
104,1905040,8.4562,4.0869,3.0987,0.2800,0.1400,0.2800,999.0797,8.3856,4.0246,3.1071,1590579133,N
104,1903476,8.5065,3.9888,3.2160,-1.4000,0.5600,-0.0700,999.0801,8.3867,4.0049,3.1295,1590579133,N
104,1904256,8.4682,4.0343,3.2566,-0.9800,0.3500,-0.1400,999.0800,8.3805,3.9997,3.1528,1590579133,N
104,1905914,8.4802,4.0319,3.1872,0.7000,-0.8400,-0.4900,999.0807,8.3829,4.0004,3.1454,1590579133,N
104,1908366,8.4132,4.0917,3.1872,0.5600,-0.9100,-0.4900,999.0804,8.3775,4.0148,3.1415,1590579133,N
104,1907404,8.4897,4.0869,3.1226,1.1200,-0.7700,-0.8400,999.0809,8.3787,4.0270,3.1228,1590579133,N
104,1904535,8.4347,4.1874,3.0987,0.3500,-0.3500,-0.2100,999.0807,8.3723,4.0515,3.1082,1590579133,N
104,1904495,8.4347,4.0798,3.1274,-0.3500,0.4200,0.3500,999.0807,8.3725,4.0489,3.1109,1590579133,N
104,1905873,8.4682,4.0941,3.1681,0.5600,0.4200,0.2100,999.0812,8.3702,4.0502,3.1156,1590579133,N
104,1907815,8.3988,4.0774,3.0604,0.6300,0.4900,-0.1400,999.0815,8.3696,4.0592,3.1052,1590579133,N
104,1909957,8.4754,4.0917,3.1298,0.7000,0.5600,0.4200,999.0812,8.3707,4.0580,3.1040,1590579134,N
104,1907209,8.4108,4.0199,3.2112,-0.2100,0.8400,0.3500,999.0803,8.3677,4.0457,3.1280,1590579134,N
104,1905004,8.4610,3.9984,3.1968,0.7000,0.4200,0.6300,999.0797,8.3729,4.0288,3.1360,1590579134,N
104,1905438,8.4251,4.0654,3.1537,-0.5600,0.5600,0.4900,999.0792,8.3721,4.0270,3.1402,1590579134,N
104,1906752,8.4467,4.0798,3.1633,-0.2100,0.4900,0.4200,999.0782,8.3710,4.0278,3.1422,1590579134,N
104,1908991,8.4730,4.0367,3.2183,0.2100,0.3500,0.2100,999.0770,8.3710,4.0206,3.1514,1590579134,N
104,1910562,8.4706,4.0008,3.2566,-0.8400,-0.2800,-0.1400,999.0759,8.3731,4.0047,3.1661,1590579134,N
104,1907390,8.4227,3.9769,3.2375,0.9100,-0.7700,-0.2800,999.0742,8.3755,3.9973,3.1689,1590579134,N
104,1905895,8.4491,4.0295,3.2136,0.4900,-0.3500,-0.2800,999.0735,8.3749,3.9991,3.1684,1590579134,N
105,1906606,8.4514,4.0750,3.1825,0.6300,-0.0700,0.0700,999.0736,8.3733,4.0074,3.1621,1590579134,N
105,1908236,8.4993,3.9936,3.2758,0.6300,-0.0700,0.2800,999.0737,8.3760,3.9934,3.1726,1590579135,N
105,1910418,8.4467,4.0558,3.3117,0.3500,-0.5600,-0.2800,999.0741,8.3690,3.9967,3.1870,1590579135,N
105,1910742,8.4419,4.0822,3.1250,1.1200,-1.1900,-0.7000,999.0737,8.3721,4.0125,3.1590,1590579135,N
105,1907863,8.4323,4.0534,3.1298,1.0500,-1.2600,-0.3500,999.0724,8.3775,4.0178,3.1376,1590579135,N
105,1907396,8.4849,4.0606,3.0820,0.1400,-0.7700,-0.4200,999.0706,8.3848,4.0197,3.1156,1590579135,N
105,1908518,8.4132,4.1228,3.0843,-0.6300,0.2800,-0.1400,999.0693,8.3794,4.0353,3.1101,1590579135,N
105,1910437,8.4036,4.0582,3.2040,0.2100,-0.1400,-0.2100,999.0684,8.3736,4.0369,3.1237,1590579135,N
105,1912960,8.4084,3.9793,3.1537,0.5600,-0.0700,-0.0700,999.0676,8.3776,4.0263,3.1266,1590579135,N
105,1911699,8.3988,4.0128,3.0963,0.2800,0.3500,0.0700,999.0676,8.3799,4.0251,3.1218,1590579135,N
105,1909432,8.4826,4.0606,3.1561,0.2800,0.8400,0.9800,999.0668,8.3815,4.0196,3.1246,1590579136,N
105,1909610,8.4658,4.0271,3.1442,0.1400,1.0500,0.5600,999.0670,8.3822,4.0146,3.1293,1590579136,N
105,1910951,8.4826,4.0941,3.2160,-0.8400,0.9800,0.4200,999.0667,8.3753,4.0158,3.1461,1590579136,N
105,1912705,8.4395,4.0439,3.2279,-0.9100,0.5600,0.1400,999.0665,8.3710,4.0115,3.1631,1590579136,N
105,1915119,8.4802,4.0582,3.2279,-0.2100,0.4200,0.0700,999.0673,8.3686,4.0102,3.1710,1590579136,N
105,1912703,8.4634,4.0702,3.2112,-0.4200,0.0700,0.0700,999.0679,8.3676,4.0107,3.1730,1590579136,N
105,1911003,8.4586,4.0893,3.2160,0.6300,0.3500,0.2100,999.0688,8.3638,4.0181,3.1737,1590579136,N
105,1911633,8.4323,4.0271,3.1920,-0.2100,0.0700,0.0700,999.0696,8.3660,4.0133,3.1740,1590579136,N
105,1912979,8.4371,3.9769,3.2279,-0.3500,0.2800,0.3500,999.0693,8.3699,3.9980,3.1831,1590579136,N
105,1915061,8.4610,3.9984,3.2877,0.6300,0.1400,0.5600,999.0697,8.3705,3.9876,3.1943,1590579136,N
105,1916060,8.4108,4.0415,3.1992,0.0700,-0.0700,-0.2100,999.0691,8.3681,3.9952,3.1913,1590579136,N
105,1913303,8.4849,3.9673,3.2566,0.6300,-0.0700,-0.2100,999.0684,8.3718,3.9844,3.1951,1590579137,N
105,1912317,8.4395,4.0654,3.1944,-0.4200,-0.0700,0.1400,999.0681,8.3710,3.9903,3.1896,1590579137,N
105,1913165,8.5184,4.0845,3.2925,0.1400,-0.2800,-0.0700,999.0673,8.3677,3.9931,3.1949,1590579137,N
105,1914710,8.4586,3.9912,3.2040,0.9800,-0.9100,-0.3500,999.0676,8.3742,3.9892,3.1825,1590579137,N
105,1917231,8.4993,4.1133,3.2112,-0.9800,-1.1900,-0.4200,999.0680,8.3748,3.9957,3.1730,1590579137,N
105,1917015,8.4514,4.1180,3.0365,-2.3100,0.7000,0.2800,999.0685,8.3773,4.0063,3.1530,1590579137,N
105,1914308,8.3318,3.9194,3.5366,1.6100,-0.5600,-0.2100,999.0692,8.3604,3.9910,3.2164,1590579137,N
105,1914079,8.5735,4.0726,3.1370,1.6800,-1.3300,-0.7700,999.0701,8.3723,3.9992,3.1751,1590579137,N
105,1914922,8.3198,4.1420,3.0604,6.7900,1.2600,1.1200,999.0709,8.3615,4.0502,3.1386,1590579137,N
105,1917593,8.4227,4.0128,3.2016,10.7100,3.9900,1.8900,999.0704,8.3483,4.0778,3.1380,1590579137,N
105,1921784,8.3988,3.9505,3.3643,0.1400,2.3800,0.7000,999.0709,8.3406,4.0503,3.1937,1590579138,N
105,1922439,8.3701,4.0822,3.3212,-7.9800,-3.1500,-2.2400,999.0709,8.3414,4.0266,3.2215,1590579138,N
105,1920353,8.4538,4.2616,2.9551,-0.4900,-1.9600,0.0700,999.0710,8.3553,4.0552,3.1488,1590579138,N
105,1919297,8.4562,4.0056,3.2614,-0.0700,1.1200,0.5600,999.0717,8.3557,4.0364,3.1718,1590579138,N
105,1919435,8.4227,4.0965,3.2088,-0.2100,0.7000,0.2800,999.0717,8.3513,4.0403,3.1783,1590579138,N
105,1920479,8.4730,4.0750,3.1729,-0.7000,0.6300,0.3500,999.0717,8.3549,4.0348,3.1758,1590579138,N
105,1921636,8.4203,3.9458,3.3428,0.1400,0.4900,0.2100,999.0715,8.3543,4.0116,3.2068,1590579138,N
105,1918652,8.4227,4.0319,3.2734,1.3300,-0.6300,-0.1400,999.0714,8.3545,4.0121,3.2057,1590579138,N
105,1916523,8.4467,4.0534,3.1968,1.0500,-0.6300,0.7700,999.0709,8.3628,4.0087,3.1883,1590579138,N
105,1916478,8.4395,4.0463,3.1657,1.1900,-0.4900,-0.2800,999.0693,8.3659,4.0148,3.1723,1590579138,N
105,1917292,8.4706,4.0152,3.1968,0.2100,-0.0700,0.2100,999.0681,8.3713,4.0059,3.1693,1590579139,N
105,1919000,8.4467,4.0654,3.1011,0.7000,-0.0700,-0.2100,999.0679,8.3740,4.0162,3.1491,1590579139,N
105,1920038,8.4538,3.9171,3.6754,-4.7600,-2.5200,-0.9800,999.0686,8.3655,3.9633,3.2376,1590579139,N
105,1917434,8.3175,3.9793,3.1872,-6.8600,-8.2600,0.2800,999.0685,8.4048,3.9165,3.1923,1590579139,N
105,1916261,8.4921,4.0822,2.7805,-1.2600,-1.9600,1.7500,999.0678,8.4381,3.9241,3.0935,1590579139,N
105,1916608,8.5017,3.6275,3.5007,-16.8000,-1.9600,-1.6100,999.0659,8.4460,3.8090,3.2136,1590579139,N
105,1917901,8.7577,3.6275,3.3619,-14.7000,-5.8100,-7.7000,999.0647,8.4595,3.7462,3.2518,1590579139,N
105,1919398,8.8750,4.0702,2.8881,-15.8900,-8.7500,-21.0700,999.0649,8.4304,3.8587,3.1951,1590579139,N
105,1918927,8.2552,4.5703,3.2375,-7.2800,-4.8300,-27.0200,999.0656,8.2762,4.1378,3.2487,1590579139,N
105,1915636,7.0804,5.7930,2.6441,-13.8600,-7.0700,-9.8000,999.0665,8.1217,4.4723,3.1949,1590579139,N
105,1914033,8.1117,3.6323,3.9793,-3.0100,4.3400,-2.5900,999.0668,8.1062,4.3394,3.4103,1590579140,N
105,1914199,8.0495,4.9101,3.2853,-7.5600,-9.4500,-8.6100,999.0682,8.0783,4.4350,3.3530,1590579140,N
105,1916072,7.7049,5.1159,2.9862,4.5500,0.1400,-3.1500,999.0695,8.0114,4.6093,3.2776,1590579140,N
105,1918163,7.8006,4.8407,3.4002,-3.5700,8.4700,7.6300,999.0702,7.9724,4.6156,3.3627,1590579140,N
105,1917096,7.8867,4.7856,3.0293,-3.4300,1.5400,8.8900,999.0698,8.0118,4.5857,3.3096,1590579140,N
105,1914422,8.3246,4.3167,3.0126,-3.2200,8.6800,6.7200,999.0694,8.0619,4.4986,3.3073,1590579140,N
105,1914165,7.8820,4.4889,3.5677,-8.9600,8.4700,1.7500,999.0691,8.0104,4.4826,3.4510,1590579140,N
105,1914728,7.8078,4.1276,4.0175,-5.3200,13.0900,5.3900,999.0692,7.9573,4.4016,3.6713,1590579140,N
104,1916097,7.9992,4.1444,3.9075,-9.3100,9.4500,6.7900,999.0696,7.9562,4.2898,3.8034,1590579140,N
105,1917766,8.0088,3.9386,4.0845,-4.2000,3.7100,-0.4200,999.0706,7.9494,4.2142,3.9011,1590579141,N
105,1914945,7.9011,4.2449,4.0869,-2.7300,4.2000,0.8400,999.0712,7.9167,4.2101,3.9713,1590579141,N
104,1912690,7.7575,4.0391,4.4865,5.2500,-2.1000,3.2900,999.0718,7.9090,4.1688,4.0298,1590579141,N
105,1912806,7.8341,3.9553,4.0343,3.9200,-0.9100,2.7300,999.0721,7.9351,4.1320,4.0163,1590579141,N
104,1913700,8.2720,3.9793,4.1300,4.6900,5.3900,-0.2100,999.0720,7.9339,4.1126,4.0387,1590579141,N
104,1915828,7.7121,4.6516,4.1348,-4.1300,-4.8300,2.6600,999.0716,7.9110,4.1656,4.0293,1590579141,N
104,1915842,8.0782,3.6251,3.9697,-1.8200,-2.3100,8.4000,999.0715,8.0139,3.9932,4.0003,1590579141,N
104,1913113,8.6118,3.7998,4.3789,11.6900,4.4800,1.1900,999.0712,8.0246,3.9573,4.0144,1590579141,N
104,1912166,8.1117,4.3669,3.7783,-8.6800,0.5600,-2.4500,999.0711,8.0055,4.0122,3.9980,1590579141,N
104,1912866,7.9274,3.8309,4.3334,-4.2700,0.6300,-0.4900,999.0718,7.9850,3.9648,4.0854,1590579141,N
104,1914691,7.9250,3.9888,3.8644,13.1600,-0.9800,-2.6600,999.0722,7.9864,4.0464,4.0018,1590579142,N
104,1916933,8.1452,4.0271,3.8046,1.2600,3.5700,-0.0700,999.0713,7.9940,4.0534,3.9794,1590579142,N
104,1914300,8.2863,4.1109,3.9984,-4.2000,3.5700,-2.8700,999.0706,7.9783,4.0556,4.0087,1590579142,N
104,1911959,7.7743,4.2832,4.2664,-1.2600,0.9100,-1.8200,999.0701,7.9187,4.1085,4.0724,1590579142,N
104,1912363,7.8461,4.0271,4.3573,2.3800,-2.5200,1.9600,999.0698,7.9213,4.0803,4.0956,1590579142,N
104,1914085,8.3079,3.9434,4.3597,10.0800,-0.8400,-3.7100,999.0697,7.9256,4.0860,4.0817,1590579142,N
104,1916642,7.9011,4.4650,3.4217,10.7800,-3.5000,-1.2600,999.0693,7.9515,4.2154,3.8954,1590579142,N
104,1916385,8.0734,4.2473,3.8118,-6.0200,3.6400,2.1000,999.0695,7.9570,4.1862,3.9156,1590579142,N
104,1913542,8.0590,4.2736,3.9338,-4.1300,3.5000,2.0300,999.0696,7.9507,4.1713,3.9443,1590579142,N
104,1913088,7.9442,4.2257,3.9673,-1.2600,1.5400,1.2600,999.0695,7.9439,4.1700,3.9594,1590579142,N
104,1914118,8.0112,4.1515,3.9553,-0.4200,1.1200,1.4700,999.0699,7.9517,4.1533,3.9611,1590579143,N
104,1915703,7.9394,4.2209,4.1252,0.4200,0.4200,1.4700,999.0695,7.9405,4.1521,3.9849,1590579143,N
104,1916647,7.9801,4.2162,4.1348,-2.5200,1.3300,0.7700,999.0690,7.9267,4.1428,4.0217,1590579143,N
104,1913367,8.0662,4.2257,4.0463,-5.8100,3.2900,1.5400,999.0684,7.9213,4.1207,4.0551,1590579143,N
104,1911251,8.0662,4.1109,3.9840,-6.5800,2.5900,-1.2600,999.0682,7.9187,4.1013,4.0797,1590579143,N
104,1911836,7.7719,3.7352,4.5488,-4.6900,1.9600,3.9200,999.0684,7.9107,3.9932,4.2007,1590579143,N
104,1913005,7.8772,3.8405,4.6540,15.7500,-1.0500,-0.6300,999.0690,7.8917,4.0173,4.2134,1590579143,N
104,1915793,8.3127,4.1970,3.6897,2.3100,0.5600,1.0500,999.0698,7.9460,4.0424,4.0854,1590579143,N
105,1914935,7.7623,4.0463,4.2066,-11.6900,10.5700,2.8700,999.0698,7.8875,4.0096,4.2285,1590579143,N
104,1912256,7.7360,4.1324,4.7115,-12.6000,9.1000,3.6400,999.0696,7.8066,3.9681,4.4138,1590579143,N
104,1912142,7.8724,3.6203,4.6469,-7.2100,5.4600,4.2700,999.0688,7.8089,3.8494,4.5137,1590579144,N
105,1913647,8.0183,3.5844,4.9986,-8.4000,3.3600,0.3500,999.0682,7.7871,3.7460,4.6368,1590579144,N
105,1915943,7.8341,3.8142,4.7067,0.9800,3.5000,-3.3600,999.0674,7.7484,3.7839,4.6705,1590579144,N
105,1918335,7.6116,3.7352,4.9268,-11.6200,3.2200,1.9600,999.0672,7.7078,3.7214,4.7865,1590579144,N
105,1916152,7.8245,3.4576,4.9914,3.1500,4.1300,1.6800,999.0660,7.7067,3.6690,4.8287,1590579144,N
105,1914307,7.8197,3.5868,5.0465,-6.4400,3.9900,2.0300,999.0640,7.6881,3.6076,4.9039,1590579144,N
105,1915240,7.6714,3.4337,5.0417,-6.0900,5.0400,5.1100,999.0630,7.6801,3.5229,4.9774,1590579144,N
105,1916733,7.8078,3.3332,5.2187,-17.0800,8.1900,2.7300,999.0624,7.6348,3.3992,5.1308,1590579144,N
105,1918629,7.5326,3.1370,5.6447,-4.6200,2.7300,5.5300,999.0622,7.6075,3.2907,5.2409,1590579144,N
105,1920343,7.7336,2.3689,5.9509,11.3400,-6.0900,11.2000,999.0624,7.7152,3.0634,5.2213,1590579144,N
105,1917450,8.2505,2.8451,5.0824,16.1000,-9.9400,-10.2900,999.0622,7.7969,3.1197,5.0643,1590579145,N
105,1915483,7.9083,3.6347,4.8407,33.8100,-15.3300,-6.0900,999.0613,7.8784,3.3586,4.7771,1590579145,N
105,1916447,7.8078,3.3978,4.5488,26.2500,-10.2900,-7.6300,999.0612,7.9223,3.5102,4.5919,1590579145,N
105,1918325,8.2074,4.3262,3.8309,0.5600,-4.0600,-6.8600,999.0615,7.9395,3.6983,4.4110,1590579145,N
105,1920587,7.6977,4.2927,3.9242,-16.5200,3.8500,4.4800,999.0613,7.9186,3.7454,4.4088,1590579145,N
105,1921896,8.2457,2.9169,4.9531,-17.1500,8.4000,11.7600,999.0613,7.9561,3.4353,4.5902,1590579145,N
105,1919545,8.0327,3.4217,5.0632,11.1300,-0.7700,-2.5900,999.0618,7.9269,3.4715,4.6134,1590579145,N
105,1918509,8.0806,4.0056,4.1276,-2.2400,-3.4300,0.1400,999.0621,7.9598,3.5554,4.4912,1590579145,N
105,1919654,7.9490,3.2375,5.0154,-8.6100,3.2900,-0.5600,999.0620,7.9149,3.4615,4.6414,1590579145,N
105,1921222,7.6738,2.9910,5.2786,4.3400,-1.2600,-6.7200,999.0617,7.8551,3.4308,4.7641,1590579145,N
106,1923367,7.6786,3.7663,4.0558,-8.1900,-2.2400,-6.7200,999.0618,7.8533,3.5371,4.6889,1590579146,N
106,1924239,8.1882,3.3978,4.9747,-1.5400,-2.2400,-1.6100,999.0614,7.8647,3.4869,4.7073,1590579146,N
106,1922211,8.2648,3.8812,4.3813,4.8300,-2.6600,-3.0100,999.0612,7.8980,3.5763,4.5829,1590579146,N
106,1921572,7.6762,3.8261,4.5272,-2.1000,-3.0800,-4.7600,999.0615,7.8625,3.6532,4.5832,1590579146,N
106,1922869,7.6092,4.0175,4.5248,3.5700,-2.4500,-1.4700,999.0613,7.8336,3.7515,4.5532,1590579146,N
106,1924750,8.2289,3.7352,4.4387,11.6200,2.9400,-2.1000,999.0611,7.8522,3.7926,4.4867,1590579146,N
106,1926873,7.6307,3.7783,4.7474,11.0600,0.1400,0.2800,999.0611,7.8232,3.8359,4.5004,1590579146,N
106,1928877,7.7695,3.7400,4.5392,7.7000,-2.1000,-4.2700,999.0606,7.8154,3.8759,4.4796,1590579146,N
106,1927607,7.7910,4.1515,4.4172,6.7200,-3.5000,-2.4500,999.0603,7.8082,3.9615,4.4170,1590579146,N
106,1927517,7.9179,4.0032,4.4243,-2.2400,-3.4300,-2.3100,999.0601,7.8178,3.9617,4.3997,1590579146,N
106,1928760,7.9083,3.8668,4.3047,12.8800,-4.6200,1.8200,999.0592,7.8711,3.9714,4.2947,1590579147,N
106,1930796,7.9944,4.1683,3.9482,10.7800,-4.4800,-1.8200,999.0584,7.9050,4.0529,4.1540,1590579147,N
106,1932621,8.0136,4.3980,3.7902,3.5700,-1.2600,-0.4200,999.0582,7.9183,4.1284,4.0531,1590579147,N
106,1933634,8.0686,4.2855,3.9673,-2.2400,2.0300,1.0500,999.0580,7.9192,4.1356,4.0439,1590579147,N
106,1931470,8.0423,4.1228,4.0439,-0.2100,0.4900,0.7000,999.0584,7.9296,4.1207,4.0388,1590579147,N
106,1930699,7.9920,4.2568,4.0439,-0.4900,0.8400,0.3500,999.0589,7.9221,4.1361,4.0378,1590579147,N
106,1931364,8.0686,4.2114,3.9960,-0.4900,0.9800,0.8400,999.0596,7.9292,4.1345,4.0255,1590579147,N
106,1932733,7.9753,4.1037,4.0678,-0.2100,-0.0700,-0.1400,999.0596,7.9313,4.1248,4.0311,1590579147,N
106,1934611,7.9729,4.2353,4.0965,-0.3500,0.6300,0.4900,999.0597,7.9218,4.1345,4.0400,1590579147,N
106,1935562,8.0088,4.1803,4.1300,-0.7000,0.1400,0.2800,999.0601,7.9195,4.1287,4.0504,1590579147,N
106,1933022,7.9753,4.2209,4.0798,0.1400,0.2800,0.2800,999.0606,7.9151,4.1382,4.0492,1590579148,N
106,1931697,8.0518,4.1874,4.1085,1.0500,-0.0700,-0.2100,999.0605,7.9166,4.1403,4.0442,1590579148,N
106,1932360,7.9848,4.2138,4.0989,0.5600,0.0700,-0.2800,999.0607,7.9111,4.1500,4.0451,1590579148,N
105,1933557,7.9872,4.1635,4.0391,0.5600,0.0700,-0.1400,999.0616,7.9148,4.1505,4.0373,1590579148,N
105,1935417,8.0088,4.2544,4.0702,0.4200,0.5600,0.5600,999.0622,7.9121,4.1589,4.0340,1590579148,N
105,1936126,7.9801,4.1539,4.0893,0.3500,0.5600,-0.2100,999.0630,7.9098,4.1556,4.0418,1590579148,N
105,1933842,7.9896,4.1587,4.0917,0.2100,-0.3500,-0.2100,999.0641,7.9125,4.1504,4.0419,1590579148,N
105,1932568,8.0423,4.1492,4.1515,0.5600,-0.8400,-0.2100,999.0653,7.9173,4.1393,4.0439,1590579148,N
105,1933291,8.0447,4.1731,4.0391,1.0500,-0.7000,-0.7700,999.0659,7.9237,4.1442,4.0264,1590579148,N
105,1934793,7.9418,4.2305,4.0558,-0.4900,-0.5600,-0.5600,999.0670,7.9171,4.1567,4.0263,1590579148,N
105,1936504,7.9944,4.2401,4.0774,1.2600,-0.8400,-0.2800,999.0676,7.9160,4.1680,4.0168,1590579149,N
105,1937579,8.0040,4.1755,4.1276,5.5300,-1.9600,-3.1500,999.0682,7.9081,4.1979,4.0013,1590579149,N
105,1935664,7.9801,4.4387,3.8381,2.9400,-1.4000,-0.2100,999.0689,7.9124,4.2467,3.9407,1590579149,N
105,1934934,7.9394,4.3932,3.8620,-0.0700,-1.4000,0.4200,999.0695,7.9178,4.2645,3.9106,1590579149,N
105,1935715,7.9442,4.3310,3.8764,-0.1400,1.0500,0.4200,999.0694,7.9143,4.2737,3.9077,1590579149,N
105,1936948,8.0160,4.3837,3.9553,-1.1200,1.2600,0.8400,999.0687,7.9089,4.2755,3.9166,1590579149,N
105,1938810,7.9657,4.3047,3.9147,9.3800,-1.6800,0.5600,999.0680,7.9190,4.3047,3.8638,1590579149,N
105,1940524,8.0040,4.4124,3.7615,0.7700,0.1400,0.4200,999.0681,7.9248,4.3199,3.8348,1590579149,N
104,1938810,8.0183,4.3095,3.8524,-3.5000,1.8200,1.2600,999.0679,7.9294,4.2932,3.8553,1590579149,N
105,1938078,7.9633,4.3214,4.0056,-1.5400,1.3300,0.5600,999.0677,7.9171,4.2837,3.8910,1590579149,N
104,1938866,7.9872,4.2808,3.9601,-1.1200,0.2800,0.4200,999.0677,7.9187,4.2694,3.9034,1590579150,N
104,1940344,8.0542,4.2185,3.9793,4.4800,0.0700,-0.5600,999.0688,7.9227,4.2705,3.8940,1590579150,N
104,1942446,7.9490,4.3478,3.9338,0.2100,0.2100,0.2100,999.0700,7.9165,4.2796,3.8966,1590579150,N
104,1943461,8.0016,4.3262,3.9314,-0.3500,0.4200,0.2100,999.0710,7.9161,4.2782,3.8992,1590579150,N
104,1941439,7.9872,4.3262,3.8620,0.2100,0.2100,0.6300,999.0715,7.9219,4.2792,3.8861,1590579150,N
104,1940583,8.0112,4.2927,4.0223,-1.3300,0.5600,0.2100,999.0713,7.9172,4.2652,3.9110,1590579150,N
104,1941524,7.9609,4.2688,3.9410,-0.2800,0.3500,0.2100,999.0710,7.9175,4.2600,3.9161,1590579150,N
104,1942934,7.9944,4.2903,3.9721,-0.5600,-0.0700,0.3500,999.0714,7.9192,4.2529,3.9204,1590579150,N
104,1944679,7.9394,4.3143,4.0558,-0.6300,-0.2100,0.3500,999.0721,7.9104,4.2514,3.9397,1590579150,N
104,1945056,8.0566,4.3262,4.0869,1.3300,-1.4700,0.6300,999.0724,7.9156,4.2455,3.9357,1590579150,N
104,1942350,8.0877,4.1468,4.1731,3.0800,-7.5600,1.1200,999.0723,7.9594,4.1952,3.9011,1590579151,N
104,1941308,7.9466,4.3741,3.5342,4.9000,-5.6000,-3.2200,999.0729,7.9798,4.2647,3.7823,1590579151,N
104,1941897,8.1021,4.4889,3.6802,0.4200,1.2600,-3.7800,999.0724,7.9548,4.3266,3.7645,1590579151,N
103,1942651,7.9418,4.4100,3.7161,-2.7300,0.4200,-2.1700,999.0719,7.9397,4.3482,3.7715,1590579151,N
103,1943944,7.9825,4.2712,3.9529,-3.2200,0.6300,0.9800,999.0712,7.9395,4.3092,3.8166,1590579151,N
103,1943195,7.9825,4.3932,3.8333,-0.5600,0.4900,-0.5600,999.0705,7.9307,4.3220,3.8204,1590579151,N
103,1940213,7.9394,4.2975,3.8788,-1.9600,0.9100,1.1200,999.0704,7.9309,4.3024,3.8419,1590579151,N
103,1938892,8.0112,4.2855,3.9218,-0.5600,1.8900,1.0500,999.0703,7.9288,4.2866,3.8638,1590579151,N
103,1938897,8.0782,4.3837,3.7926,-0.6300,2.6600,0.7000,999.0699,7.9277,4.2936,3.8583,1590579151,N
103,1939329,7.9633,4.3406,3.9984,-5.3900,3.3600,1.8900,999.0695,7.9125,4.2682,3.9173,1590579151,N
103,1940501,7.9968,4.1468,4.1061,-5.4600,4.1300,1.6800,999.0693,7.9042,4.2132,3.9929,1590579152,N
103,1938240,7.9920,4.1085,4.1922,-5.8100,3.0800,1.3300,999.0692,7.8968,4.1587,4.0639,1590579152,N
103,1934891,8.1715,4.4004,4.0582,-4.3400,3.1500,3.1500,999.0691,7.9003,4.1478,4.0683,1590579152,N
103,1933598,7.8867,4.3525,4.8455,24.7800,-1.4700,13.8600,999.0698,7.9058,4.1553,4.0499,1590579152,N
103,1933851,7.9418,4.4435,3.7304,17.7800,1.4700,33.2500,999.0697,8.0527,4.0505,3.8624,1590579152,N
103,1933839,8.0112,5.1852,3.0269,31.7100,1.6100,123.9000,999.0687,8.5384,3.4643,3.3563,1590579152,N
103,1933709,6.7382,2.5938,2.8618,29.9600,52.4300,212.1700,999.0679,9.0853,1.8618,3.1876,1590579152,N
103,1932742,4.9890,-1.1174,3.3141,94.6400,116.9700,249.6200,999.0671,9.1415,-0.1426,3.5473,1590579152,N
102,1940791,1.5147,-8.7123,7.0540,-24.1500,141.8900,186.6200,999.0669,8.2272,-2.6172,4.6513,1590579152,N
102,1956177,2.6824,-6.6305,11.2534,49.2100,126.5600,59.3600,999.0669,6.8318,-2.6609,6.5127,1590579152,N
102,1974288,-0.4259,-4.3956,9.3631,28.2100,51.3800,45.0800,999.0676,4.7195,-3.2459,7.9599,1590579153,N
102,1985364,-0.3541,-4.3908,9.3583,1.8900,23.6600,14.7700,999.0692,2.9059,-3.0719,8.8481,1590579153,N
102,1994188,-0.3206,-4.2688,9.4325,5.5300,22.4700,14.3500,999.0715,1.3348,-2.1068,9.4842,1590579153,N
102,2000646,-0.8877,-3.8309,9.4516,16.8700,15.4000,5.8800,999.0746,0.0675,0.4930,9.7940,1590579153,N
103,2007733,-1.0122,-3.7807,8.9994,11.1300,4.7600,-0.2800,999.0778,-0.5250,7.1382,6.7038,1590579153,N
103,2015123,-0.8279,-2.6704,10.0283,-3.7800,-5.1100,0.7700,999.0807,-0.6002,-6.9450,6.8976,1590579153,N
103,2023980,-1.2826,-3.1035,8.4443,-14.5600,1.0500,10.4300,999.0837,-0.4146,-2.0654,9.5777,1590579153,N
103,2032206,-0.9141,-2.6249,10.0451,71.1200,7.9800,-1.1900,999.0880,-0.5043,-1.5798,9.6654,1590579153,N
103,2037880,-0.9763,-2.2373,9.5545,13.8600,-10.2900,0.7000,999.0909,-0.4691,-1.2827,9.7111,1590579153,N
103,2041100,-1.0457,-2.6704,9.7388,-13.9300,-12.0400,2.5200,999.0941,-0.4699,-1.4505,9.6874,1590579153,N
103,2044723,-0.6006,-2.6225,9.7340,-15.8900,-20.0900,0.8400,999.0969,-0.3348,-1.4600,9.6916,1590579154,N
103,2048322,-0.3374,-3.3571,8.7817,-9.8000,-11.9700,3.2900,999.0997,-0.2615,-1.6384,9.6653,1590579154,N
103,2051908,-0.1244,-3.5509,9.0736,5.3900,-3.8500,-5.5300,999.1025,-0.2046,-1.7471,9.6476,1590579154,N
103,2055439,-0.1938,-2.6824,9.4684,-3.5000,-2.1000,-3.5000,999.1042,-0.1842,-1.8387,9.6310,1590579154,N
103,2058142,-0.2465,-2.9169,9.5330,8.4700,5.6700,-2.5200,999.1063,-0.2401,-2.1089,9.5742,1590579154,N
103,2060493,-0.2824,-3.0365,9.4445,-5.7400,0.2800,5.5300,999.1086,-0.2623,-2.2926,9.5313,1590579154,N
103,2062870,-0.1627,-3.3691,9.4469,13.6500,2.4500,0.5600,999.1107,-0.2602,-2.3972,9.5056,1590579154,N
103,2065289,-0.2201,-2.8259,9.5330,10.3600,-2.3100,-1.7500,999.1115,-0.2252,-2.2948,9.5317,1590579154,N
103,2066408,-0.4355,-2.5507,9.4540,2.6600,-0.5600,-0.0700,999.1119,-0.2609,-2.3224,9.5241,1590579154,N
103,2067149,-0.1819,-2.4550,9.7077,2.8000,1.5400,-1.1200,999.1125,-0.2549,-2.3757,9.5111,1590579154,N
103,2066926,-0.2297,-2.2588,9.5713,16.0300,-0.4200,1.1200,999.1130,-0.2400,-2.1821,9.5578,1590579155,N
103,2066997,-0.1675,-2.6800,9.3153,4.5500,-0.4200,-1.1200,999.1138,-0.2205,-2.2298,9.5472,1590579155,N
103,2069258,-0.2752,-2.4861,9.6766,-5.3200,-0.4200,0.2100,999.1144,-0.2291,-2.3007,9.5302,1590579155,N
103,2073005,-0.3039,-2.9934,9.5498,-3.0800,1.0500,3.9200,999.1148,-0.2582,-2.4582,9.4900,1590579155,N
103,2075293,-0.3159,-2.4933,9.6814,9.6600,2.3100,0.3500,999.1149,-0.2843,-2.4531,9.4906,1590579155,N
103,2077238,-0.3039,-2.6847,9.5641,-2.5200,0.9100,6.3000,999.1143,-0.3041,-2.4845,9.4818,1590579155,N
103,2078368,-0.2824,-2.7757,9.5330,-2.4500,0.3500,2.9400,999.1140,-0.3072,-2.5400,9.4670,1590579155,N
103,2078342,-0.3422,-2.6632,9.5019,-0.7000,-0.0700,-0.4900,999.1135,-0.3128,-2.5698,9.4588,1590579155,N
103,2079576,-0.2728,-2.7996,9.4636,2.8700,1.7500,0.2100,999.1138,-0.3185,-2.6434,9.4383,1590579155,N
103,2080792,-0.3829,-2.5484,9.5426,2.8700,1.1900,-0.2800,999.1143,-0.3391,-2.6334,9.4404,1590579155,N
103,2081477,-0.3685,-2.4790,9.5498,1.1200,0.7700,-0.1400,999.1143,-0.3503,-2.6113,9.4461,1590579156,N
103,2082155,-0.3661,-2.5914,9.5306,1.1200,0.2800,0.5600,999.1138,-0.3554,-2.5956,9.4502,1590579156,N
103,2082137,-0.3685,-2.6130,9.5904,-0.0700,0.2800,0.2100,999.1143,-0.3596,-2.5982,9.4494,1590579156,N
103,2078326,-0.3948,-2.5603,9.5952,1.6100,0.2800,0.1400,999.1151,-0.3673,-2.5749,9.4554,1590579156,N
103,2076739,-0.4714,-2.5866,9.5186,0.8400,0.9800,-0.0700,999.1155,-0.3950,-2.5916,9.4498,1590579156,N
103,2076918,-0.4451,-2.6345,9.5258,-4.9700,0.3500,-0.9100,999.1149,-0.4089,-2.6548,9.4316,1590579156,N
103,2077388,-0.2871,-2.7805,9.6742,-4.9000,-0.7000,0.8400,999.1149,-0.3812,-2.6830,9.4248,1590579156,N
103,2078351,-0.3565,-2.5699,9.6503,-16.4500,-2.5200,2.3100,999.1152,-0.3663,-2.7051,9.4191,1590579156,N
103,2079401,-0.4522,-3.3212,10.1743,-22.4700,-9.8700,-14.1400,999.1150,-0.2830,-2.7639,9.4048,1590579156,N
103,2080540,-0.2584,-4.0822,10.7055,-43.7500,-58.1700,-42.9100,999.1144,0.3229,0.0690,9.8011,1590579156,N
103,2082158,1.3735,-6.1567,8.4562,-49.2800,-82.0400,-81.9700,999.1140,1.1276,-6.1886,7.5233,1590579157,N
103,2079326,2.9575,-6.0706,6.8746,-60.6900,-51.8000,-146.5800,999.1134,2.4101,-5.7575,7.5639,1590579157,N
103,2063859,5.1087,-4.7186,4.4889,-88.9000,38.3600,-171.6400,999.1140,3.4764,-5.5564,7.2946,1590579157,N
103,2049072,3.6538,-4.5105,5.3623,-84.7000,117.7400,-155.1200,999.1144,3.6951,-5.3323,7.3541,1590579157,N
102,2040230,3.3308,-0.4570,9.1167,-38.5700,122.9200,-83.8600,999.1145,3.5550,-4.3751,8.0244,1590579157,N
103,2029802,2.1727,-4.3621,9.9900,-47.9500,110.3900,20.9300,999.1144,2.3887,-4.5677,8.3427,1590579157,N
103,2012684,2.2158,-3.7280,10.0499,47.7400,6.5100,-3.2200,999.1138,2.0886,-4.0082,8.7030,1590579157,N
102,1991298,2.6297,-2.7015,8.7458,7.2800,5.7400,0.7700,999.1124,2.1214,-3.6684,8.8438,1590579157,N
103,1967361,1.2491,-3.4768,10.2748,-36.9600,-75.3900,27.5800,999.1107,2.6014,-4.1376,8.5020,1590579157,N
103,1965679,4.1396,-5.4580,7.6594,-11.2000,-81.2000,18.2700,999.1093,3.4454,-4.6785,7.9001,1590579157,N
103,1968925,5.7188,-5.4580,7.4273,34.4400,-50.9600,-6.6500,999.1072,4.0021,-4.5811,7.6920,1590579158,N
103,1970629,5.2403,-2.3856,7.4632,68.8100,-53.7600,-11.6200,999.1049,4.5665,-3.7665,7.8186,1590579158,N
103,1965005,5.8887,-2.3713,6.3697,85.8200,-44.5900,2.7300,999.1028,4.9454,-3.0643,7.8945,1590579158,N
103,1967170,6.8722,-0.5408,7.0732,40.7400,-23.5200,18.7600,999.1003,5.1408,-2.3970,7.9998,1590579158,N
103,1976755,7.2191,-2.3306,7.3819,2.8000,-37.8000,2.8000,999.0987,5.6483,-2.4170,7.6436,1590579158,N
104,1981793,6.8746,-1.1103,6.0826,7.2800,-21.7000,-9.8000,999.0977,6.0357,-2.1233,7.4318,1590579158,N
104,1981488,7.4728,-0.7442,6.0754,-11.8300,-6.8600,-9.4500,999.0963,6.4115,-1.8980,7.1736,1590579158,N
104,1979317,7.7839,-1.3687,6.1232,-18.5500,12.8100,-5.6700,999.0941,6.6945,-1.8735,6.9169,1590579158,N
104,1972034,7.1833,-1.6439,7.0851,-18.4800,14.4900,-19.9500,999.0920,6.8780,-1.8097,6.7520,1590579158,N
104,1968492,7.2670,-1.1701,6.9727,-38.9900,12.7400,-30.1000,999.0907,7.2668,-1.6945,6.3633,1590579158,N
104,1967360,6.9200,-0.0502,6.7406,-29.8200,18.4100,-17.2900,999.0894,7.4981,-1.3949,6.1647,1590579159,N
104,1964259,6.4391,-0.6197,6.9559,-9.5200,34.0200,15.5400,999.0881,7.1123,-1.3943,6.6062,1590579159,N
104,1963479,6.0179,-1.8425,7.5015,-23.7300,57.1200,27.5100,999.0875,6.3914,-1.7619,7.2261,1590579159,N
104,1962529,4.9077,-2.6728,9.5043,-32.2000,19.6000,35.0000,999.0867,5.8746,-2.2220,7.5314,1590579159,N
104,1957419,4.0463,-0.8327,8.9850,81.4100,-40.3200,119.4200,999.0872,4.7485,-1.8701,8.3741,1590579159,N
104,1952545,3.7328,-1.3735,6.8530,73.0100,-21.4900,203.5600,999.0865,4.0165,-2.0530,8.7077,1590579159,N
104,1953431,0.1507,-4.4794,9.3870,-3.4300,28.5600,181.2300,999.0858,2.8583,-3.4588,8.7199,1590579159,N
104,1962538,1.1174,-6.3960,7.2503,64.8900,63.3500,120.2600,999.0854,1.7958,-4.1530,8.7005,1590579159,N
104,1979424,0.1101,-5.2570,10.8969,57.0500,56.6300,59.2900,999.0865,1.0179,-4.2255,8.7909,1590579159,N
105,1991427,-1.2634,-3.9529,10.3848,45.8500,-4.4800,-2.3800,999.0887,0.7976,-4.3530,8.7513,1590579159,N
105,1999667,-0.0957,-2.7159,9.1478,-6.2300,-1.3300,-13.5100,999.0912,0.6619,-4.4900,8.6932,1590579160,N
105,2004120,-0.8447,-2.5316,10.1839,16.5900,6.7200,-7.4900,999.0941,0.3901,3.0803,9.3022,1590579160,N
105,2008242,-0.3852,-2.8140,9.4493,-22.4700,-17.1500,-5.0400,999.0966,0.4112,2.1916,9.5498,1590579160,N
105,2012414,-0.3494,-2.7206,9.2961,-11.6900,0.4200,10.0800,999.0991,0.2885,0.6682,9.7796,1590579160,N
105,2016845,-0.1364,-3.7352,9.3200,2.8000,0.7700,2.5200,999.1011,0.1965,0.0886,9.8043,1590579160,N
105,2021073,-0.3733,-2.8857,9.4708,4.5500,0.4900,2.5200,999.1024,0.0814,-0.7676,9.7762,1590579160,N
105,2023932,-0.5456,-2.7063,9.2746,-19.4600,1.6100,13.3700,999.1030,-0.0870,-1.7492,9.6490,1590579160,N
105,2026194,-0.6748,-4.2353,9.1334,-15.6100,0.4900,17.5700,999.1038,-0.2461,-2.4314,9.4973,1590579160,N
105,2029874,-0.3374,-3.7256,9.5426,14.6300,0.6300,-8.4700,999.1056,-0.2478,-2.5241,9.4730,1590579160,N
105,2033375,-0.4570,-2.5938,9.4062,12.6700,-1.6800,-3.2200,999.1077,-0.2648,-2.4170,9.5004,1590579160,N
105,2036917,-0.5097,-3.3069,9.4493,3.4300,1.7500,-7.4200,999.1089,-0.3147,-2.6753,9.4294,1590579161,N
105,2042757,-0.4307,-2.7302,9.3942,-4.9700,0.6300,-2.5200,999.1107,-0.3427,-2.7767,9.3991,1590579161,N
105,2045690,-0.4044,-3.3595,9.3177,-3.9200,-1.8900,-0.2100,999.1121,-0.3405,-2.8608,9.3739,1590579161,N
105,2046715,-0.2536,-3.2112,9.2937,0.9100,0.0700,-3.5000,999.1134,-0.3181,-2.9431,9.3492,1590579161,N
105,2049958,-0.4714,-3.1418,9.2842,-1.3300,0.0700,1.4700,999.1145,-0.3522,-2.9899,9.3331,1590579161,N
104,2052976,-0.3398,-3.5414,9.3966,-1.1200,0.2100,2.8700,999.1153,-0.3557,-3.0635,9.3091,1590579161,N
105,2055467,-0.3326,-3.3643,9.2698,-0.1400,-0.2800,-1.1900,999.1152,-0.3467,-3.1194,9.2908,1590579161,N
105,2057811,-0.4092,-3.5103,9.2219,-0.0700,1.4000,-2.8700,999.1141,-0.3654,-3.2759,9.2361,1590579161,N
104,2059288,-0.4451,-3.2638,9.2602,0.4200,-0.2800,-1.0500,999.1129,-0.3769,-3.2716,9.2372,1590579161,N
104,2059148,-0.2943,-3.0939,9.1286,-20.3700,-2.3800,11.0600,999.1119,-0.3701,-3.2276,9.2529,1590579161,N
104,2061257,-0.2919,-3.7304,9.2028,1.8200,2.3800,-3.2200,999.1116,-0.3671,-3.3992,9.1914,1590579162,N
104,2066205,-0.4068,-3.3284,9.3775,3.4300,1.4000,-3.4300,999.1114,-0.3776,-3.4358,9.1773,1590579162,N
104,2070201,0.1986,-3.9099,8.7864,-4.6200,7.4200,1.7500,999.1115,-0.3282,-3.8324,9.0208,1590579162,N
104,2072636,-0.2536,-3.3643,9.4158,-4.6200,-5.1800,-2.8700,999.1118,-0.2677,-3.5874,9.1230,1590579162,N
103,2073131,-0.7178,-3.2853,9.5210,-3.3600,0.7000,-0.7700,999.1129,-0.3613,-3.5509,9.1341,1590579162,N
103,2072764,-0.5551,-3.6778,9.2674,-3.8500,-1.4000,-1.8900,999.1138,-0.3847,-3.5761,9.1233,1590579162,N
103,2073845,-0.4714,-3.1466,9.3894,2.3100,0.1400,1.0500,999.1140,-0.4042,-3.4500,9.1709,1590579162,N
103,2074698,-0.5503,-3.2997,9.6455,2.5200,-2.5200,-1.2600,999.1139,-0.4060,-3.3070,9.2233,1590579162,N
103,2075672,-0.4786,-3.5055,9.4373,20.0900,-22.8200,1.0500,999.1133,-0.2159,-2.4172,9.5016,1590579162,N
103,2077503,0.3350,-2.9647,9.0640,0.2100,0.9100,6.1600,999.1129,-0.1187,-2.2364,9.5475,1590579162,N
103,2079240,-0.1962,-3.2495,9.5785,-6.2300,2.3800,1.1900,999.1117,-0.1586,-2.5455,9.4692,1590579163,N
103,2078295,-0.4810,-3.7663,9.2195,4.2700,4.2700,3.4300,999.1111,-0.2623,-2.9638,9.3444,1590579163,N
103,2078501,-0.1412,-2.4335,9.4253,5.6700,1.4000,-5.3200,999.1105,-0.2383,-2.9448,9.3510,1590579163,N
102,2081747,-0.4187,-2.9575,9.3200,-9.8000,-1.4000,6.3700,999.1097,-0.2767,-2.9097,9.3609,1590579163,N
103,2082631,-0.1747,-2.7900,9.5521,0.4200,0.6300,-1.7500,999.1102,-0.2574,-2.9153,9.3598,1590579163,N
103,2083541,-0.3494,-3.1585,9.3248,4.6200,2.3100,0.4900,999.1113,-0.2937,-3.0148,9.3271,1590579163,N
102,2084232,-0.3111,-3.2447,9.4325,-0.2800,0.9100,2.7300,999.1127,-0.3080,-3.0521,9.3145,1590579163,N
102,2083285,-0.3015,-3.1657,9.4732,-0.3500,0.1400,-1.4700,999.1138,-0.3046,-3.0911,9.3018,1590579163,N
102,2083412,-0.3039,-3.2758,9.2411,-2.8700,-0.2800,0.1400,999.1151,-0.3035,-3.1393,9.2856,1590579163,N
102,2085118,-0.3613,-3.2351,9.4445,1.5400,0.6300,0.8400,999.1158,-0.3196,-3.1469,9.2825,1590579163,N
102,2088030,-0.4331,-3.2112,9.3823,-0.5600,0.3500,0.7000,999.1159,-0.3455,-3.1608,9.2769,1590579164,N
102,2089423,-0.3733,-3.0054,9.3224,-1.6100,-0.4200,3.2900,999.1163,-0.3538,-3.0907,9.3001,1590579164,N
102,2089244,-0.3876,-3.3428,9.4134,0.5600,-0.1400,0.1400,999.1165,-0.3579,-3.1175,9.2910,1590579164,N
102,2084290,-0.4116,-3.0580,9.5569,2.9400,0.1400,-0.1400,999.1171,-0.3664,-3.0716,9.3060,1590579164,N
102,2080900,-0.4666,-3.3404,9.3703,2.4500,0.1400,-0.7000,999.1182,-0.3838,-3.1084,9.2931,1590579164,N
101,2081603,-0.4307,-3.1418,9.3679,1.4700,-0.0700,0.0700,999.1185,-0.3913,-3.0941,9.2975,1590579164,N
102,2085186,-0.3422,-3.2399,9.3775,0.7000,0.0700,-0.0700,999.1191,-0.3808,-3.1117,9.2921,1590579164,N
102,2088064,-0.4044,-3.1226,9.3488,1.6800,0.3500,-1.1200,999.1195,-0.3854,-3.1189,9.2895,1590579164,N
101,2089957,-0.3063,-3.1155,9.4636,-0.3500,-0.9800,-2.1000,999.1200,-0.3573,-3.1044,9.2954,1590579164,N
101,2088331,-0.4762,-3.1609,9.3607,0.9100,0.2800,-0.4900,999.1201,-0.3812,-3.1167,9.2904,1590579164,N
101,2086760,-0.3661,-3.1490,9.4134,0.2800,0.0700,0.0700,999.1208,-0.3778,-3.1144,9.2913,1590579165,N
101,2087324,-0.3661,-3.0891,9.4134,-0.6300,-0.1400,0.3500,999.1219,-0.3744,-3.0998,9.2963,1590579165,N
101,2088770,-0.3805,-3.2088,9.4158,0.5600,-0.0700,-0.2100,999.1221,-0.3733,-3.1073,9.2939,1590579165,N
101,2090597,-0.2967,-2.9575,9.3344,3.8500,-0.8400,-0.9800,999.1219,-0.3478,-3.0290,9.3207,1590579165,N
101,2091530,-0.3996,-3.1011,9.4181,-5.0400,0.2100,1.6100,999.1216,-0.3637,-3.0692,9.3069,1590579165,N
100,2088354,-0.4427,-3.0269,9.4828,-0.7000,0.0700,-0.3500,999.1222,-0.3786,-3.0627,9.3084,1590579165,N
101,2089073,-0.3589,-3.2638,9.4134,-0.0700,0.6300,0.3500,999.1232,-0.3794,-3.1082,9.2933,1590579165,N
101,2090988,-0.4666,-3.0604,9.3655,0.4200,-0.2100,-0.7000,999.1241,-0.3933,-3.0916,9.2983,1590579165,N
100,2091652,-0.4092,-3.2040,9.3799,0.2800,-0.0700,0.1400,999.1248,-0.3951,-3.1008,9.2951,1590579165,N
100,2092172,-0.3470,-3.0891,9.3488,-1.8200,-0.2800,1.2600,999.1257,-0.3857,-3.0897,9.2992,1590579165,N
100,2092759,-0.3494,-3.1274,9.4253,0.2800,-0.2800,-0.2800,999.1265,-0.3746,-3.0804,9.3028,1590579166,N
100,2090627,-0.4714,-3.0939,9.3847,1.3300,0.8400,0.4200,999.1274,-0.4001,-3.0880,9.2992,1590579166,N
100,2090403,-0.3541,-3.1202,9.4469,1.6800,0.7000,-0.3500,999.1282,-0.3942,-3.0961,9.2967,1590579166,N
100,2092659,-0.4331,-3.1202,9.3775,-0.2800,0.1400,0.2800,999.1284,-0.4030,-3.0988,9.2954,1590579166,N
100,2093776,-0.3565,-3.1466,9.3918,-0.4900,0.1400,0.6300,999.1280,-0.3953,-3.1039,9.2941,1590579166,N
100,2094223,-0.4187,-3.1753,9.4445,-1.4700,-0.6300,-0.2800,999.1274,-0.3937,-3.1040,9.2941,1590579166,N
100,2094880,-0.4331,-3.0843,9.4516,-0.4900,-0.2100,0.1400,999.1262,-0.3991,-3.0874,9.2994,1590579166,N
100,2091882,-0.2680,-3.2279,9.4684,3.0100,0.1400,-1.2600,999.1243,-0.3696,-3.0931,9.2987,1590579166,N
100,2090129,-0.5527,-3.2088,9.3368,2.8700,0.6300,-0.2800,999.1230,-0.4084,-3.1097,9.2916,1590579166,N
100,2090878,-0.4116,-3.2734,9.3416,1.6800,0.7700,0.4900,999.1226,-0.4145,-3.1391,9.2814,1590579166,N
99,2091791,-0.4666,-3.0365,9.4253,4.3400,1.0500,0.7000,999.1221,-0.4315,-3.0950,9.2954,1590579167,N
100,2092904,-0.4546,-3.0150,9.4181,0.4900,-0.2100,0.6300,999.1213,-0.4343,-3.0555,9.3084,1590579167,N
99,2094154,-0.4475,-3.0054,9.4110,0.2100,-0.2100,0.8400,999.1201,-0.4357,-3.0243,9.3185,1590579167,N
99,2090963,-0.3254,-2.6752,9.5665,6.2300,-0.4200,-2.5200,999.1182,-0.4020,-2.9097,9.3564,1590579167,N
100,2090003,-0.4427,-2.9264,9.4373,1.6100,0.2100,-0.2800,999.1166,-0.4098,-2.9018,9.3585,1590579167,N
99,2091199,-0.4522,-2.9192,9.4732,-0.7700,0.3500,-0.0700,999.1152,-0.4204,-2.9146,9.3541,1590579167,N
99,2092010,-0.3852,-2.8977,9.4756,-0.5600,0.4200,0.2100,999.1132,-0.4166,-2.9202,9.3525,1590579167,N
100,2092625,-0.5288,-3.0508,9.5019,-2.3800,-1.1900,-0.3500,999.1116,-0.4278,-2.9263,9.3501,1590579167,N
100,2092865,-0.4451,-3.0126,9.4636,-0.1400,0.2100,0.5600,999.1118,-0.4327,-2.9374,9.3464,1590579167,N
99,2088475,-0.4403,-2.9432,9.5426,-1.0500,-0.3500,0.2100,999.1126,-0.4306,-2.9253,9.3503,1590579167,N
100,2086812,-0.5097,-2.9623,9.4086,0.6300,0.5600,-0.2100,999.1137,-0.4496,-2.9397,9.3449,1590579168,N
99,2087338,-0.4475,-2.8953,9.5115,-1.2600,-0.1400,0.5600,999.1145,-0.4483,-2.9250,9.3495,1590579168,N
99,2087813,-0.5025,-3.0054,9.4612,0.9800,-0.1400,-0.2800,999.1158,-0.4556,-2.9235,9.3497,1590579168,N
99,2089504,-0.5049,-3.0580,9.4756,0.2100,0.0700,0.4900,999.1171,-0.4650,-2.9367,9.3451,1590579168,N
99,2091286,-0.4762,-2.9791,9.5306,-3.1500,-2.2400,0.5600,999.1190,-0.4496,-2.9009,9.3570,1590579168,N
99,2093682,0.0335,-3.4241,10.0642,-1.7500,-21.4200,-2.8700,999.1199,-0.1666,-2.2218,9.5502,1590579168,N
99,2099712,-0.2154,-2.1129,9.4516,-4.9700,-13.7200,13.2300,999.1196,-0.0747,-1.7549,9.6481,1590579168,N
99,2103847,-0.1412,-5.5490,9.2243,-31.0800,-1.3300,29.9600,999.1195,-0.1605,-2.4297,9.4995,1590579168,N
99,2106748,-0.5767,-3.8883,8.9444,13.7900,-1.7500,-12.9500,999.1194,-0.2014,-2.5752,9.4603,1590579168,N
99,2108158,0.1986,-3.4624,9.3081,2.2400,-3.6400,-14.2800,999.1188,-0.0613,-2.2025,9.5559,1590579168,N
99,2109230,0.0167,-3.0820,9.4564,5.7400,-0.7000,-13.0900,999.1190,-0.0144,-1.8901,9.6228,1590579169,N
99,2108617,0.0742,-2.8355,9.5498,1.2600,0.9800,-5.1800,999.1182,0.0050,-1.5475,9.6838,1590579169,N
99,2109213,0.0790,-3.1657,9.4014,-8.2600,1.1900,-2.5200,999.1177,0.0130,-1.0242,9.7530,1590579169,N
99,2110063,0.1149,-3.5270,9.2602,-5.3900,0.7000,-8.2600,999.1178,0.0394,-3.4718,9.1714,1590579169,N
99,2110790,0.1101,-2.9480,9.3296,3.2900,2.4500,-6.3700,999.1178,0.0434,-2.5234,9.4763,1590579169,N
99,2111427,0.0502,-3.0078,9.4684,-0.8400,1.1900,0.3500,999.1184,0.0337,-2.3686,9.5163,1590579169,N
99,2110852,0.1316,-3.3045,9.3488,-3.0800,0.7700,1.8900,999.1188,0.0441,-2.5873,9.4591,1590579169,N
99,2108462,0.1412,-3.4002,9.4158,0.4900,0.8400,-0.6300,999.1195,0.0569,-2.6703,9.4359,1590579169,N
99,2108205,0.1316,-3.2806,9.3775,3.7100,0.9800,-4.4800,999.1190,0.0698,-2.5787,9.4613,1590579169,N
99,2109075,0.1101,-2.9815,9.4493,0.5600,0.7700,-0.7000,999.1185,0.0720,-2.5513,9.4687,1590579169,N
99,2110294,0.0574,-3.1609,9.4397,-2.1700,0.0700,2.3100,999.1179,0.0652,-2.6699,9.4360,1590579170,N
99,2111644,0.1077,-3.2183,9.4205,-2.4500,-0.7000,1.9600,999.1171,0.0767,-2.9624,9.3482,1590579170,N
99,2112403,0.0526,-3.4313,9.4636,-2.8000,-0.4200,0.9100,999.1168,0.0740,-3.1484,9.2872,1590579170,N
99,2108630,0.0550,-3.0532,9.2483,-4.2000,-1.6100,1.0500,999.1157,0.0818,-3.5017,9.1598,1590579170,N
99,2107787,0.2680,-3.3763,9.2626,-5.3200,-0.7000,1.7500,999.1154,0.1215,-3.6311,9.1088,1590579170,N
99,2109292,0.0861,-3.5151,9.3081,-3.5000,0.2800,1.1200,999.1148,0.1103,-3.6647,9.0955,1590579170,N
99,2110717,0.1292,-3.2518,9.3320,-4.3400,-0.2100,3.1500,999.1147,0.1101,-3.8075,9.0367,1590579170,N
100,2112029,0.0239,-3.5270,9.2363,-8.9600,-0.9100,8.2600,999.1138,0.0793,-5.0170,8.4258,1590579170,N
99,2113146,0.1125,-3.6395,9.1765,-0.9800,-1.8900,4.5500,999.1136,0.0841,-5.5563,8.0803,1590579170,N
99,2111672,0.0550,-3.9147,9.1717,-1.0500,-1.8900,0.9800,999.1136,0.0866,-5.6772,7.9957,1590579170,N
100,2108045,0.0287,-3.7161,9.2889,1.6100,0.2800,-1.4000,999.1134,0.0798,-5.1806,8.3262,1590579171,N
100,2107929,0.0287,-3.6634,9.2818,-2.1000,-0.7000,1.6100,999.1123,0.0687,-5.4774,8.1341,1590579171,N
100,2109226,0.0981,-3.8812,9.1813,1.2600,-0.4900,0.9100,999.1125,0.0765,-5.1906,8.3200,1590579171,N
100,2110764,-0.0790,-3.5749,9.2530,5.8100,0.3500,-1.6100,999.1127,0.0465,-5.2317,8.2945,1590579171,N
100,2112729,0.1460,-3.5198,9.1956,-0.2100,-0.2800,-0.2100,999.1127,0.0712,-4.3695,8.7791,1590579171,N
100,2114584,0.0861,-3.6873,9.2698,0.7700,0.2800,-0.2100,999.1132,0.0726,-4.0760,8.9192,1590579171,N
100,2112002,0.0766,-3.8070,9.2387,0.8400,0.6300,-3.3600,999.1136,0.0750,-3.5782,9.1302,1590579171,N
100,2109419,0.0263,-3.2901,9.2865,3.9200,0.3500,-1.8200,999.1141,0.0652,-3.3035,9.2332,1590579171,N
99,2110480,0.0431,-3.5414,9.2578,0.0700,-0.2800,1.7500,999.1141,0.0598,-3.5221,9.1522,1590579171,N
99,2112313,0.1914,-3.4863,9.4421,3.0100,0.8400,1.5400,999.1140,0.0755,-3.4123,9.1935,1590579171,N
99,2114114,0.0287,-3.3308,9.3512,1.1900,0.0700,-0.0700,999.1144,0.0655,-3.3629,9.2118,1590579172,N
99,2116054,0.0191,-3.4481,9.2818,-1.6800,0.1400,1.0500,999.1143,0.0533,-3.4424,9.1824,1590579172,N
99,2117578,0.0670,-3.4911,9.2674,0.1400,0.0700,-0.4200,999.1147,0.0561,-3.3916,9.2013,1590579172,N
99,2115254,0.1460,-3.3835,9.3105,0.2800,0.4200,-0.4900,999.1152,0.0713,-3.2803,9.2415,1590579172,N
99,2113752,0.0096,-3.3021,9.3512,0.2800,-0.0700,0.1400,999.1155,0.0591,-3.2864,9.2394,1590579172,N
99,2115080,0.0502,-3.5677,9.3177,12.3900,0.9100,0.9800,999.1155,0.0473,-3.0804,9.3102,1590579172,N
99,2116947,-0.0191,-3.1705,9.4612,-2.0300,-0.5600,-0.1400,999.1155,0.0388,-3.2396,9.2560,1590579172,N
99,2118655,0.0646,-3.0700,9.4564,-3.3600,-0.2800,0.4900,999.1157,0.0455,-3.3487,9.2171,1590579172,N
99,2119904,-0.0024,-3.0437,9.3847,-7.7000,-1.1900,1.1900,999.1152,0.0429,-4.0199,8.9448,1590579172,N
99,2120855,-0.0191,-3.5773,9.2052,-21.7000,-0.9800,8.0500,999.1148,0.0268,-0.0919,9.8062,1590579172,N
99,2118516,0.0766,-3.8644,9.3177,-7.5600,-0.2100,0.4200,999.1139,0.0314,1.1004,9.7447,1590579173,N
99,2118293,-0.1388,-3.9242,9.1286,-4.7600,0.9800,0.1400,999.1129,-0.0062,-2.3453,9.5221,1590579173,N
99,2118910,0.0574,-3.6179,9.2722,-4.3400,0.4200,1.5400,999.1122,0.0005,-1.9346,9.6139,1590579173,N
99,2120090,-0.0694,-3.7902,9.1813,8.4000,1.0500,-1.1900,999.1113,-0.0203,-3.4774,9.1694,1590579173,N
98,2121331,-0.1053,-3.6299,9.2626,11.4800,0.7700,-2.1000,999.1108,-0.0384,-4.1148,8.9015,1590579173,N
98,2122744,0.2058,-3.1466,9.2985,14.9100,-0.4900,-7.1400,999.1105,0.0256,-2.4192,9.5035,1590579173,N
98,2123207,-0.0144,-3.4026,9.0592,-18.6200,-0.9800,-2.6600,999.1105,0.0317,-2.7723,9.4066,1590579173,N
98,2120998,-0.0311,-3.6323,9.0855,0.5600,-0.0700,4.8300,999.1105,0.0115,-3.0695,9.3139,1590579173,N
98,2121821,0.1292,-4.0247,9.0999,-3.2200,-0.8400,4.4100,999.1104,0.0300,-5.1389,8.3523,1590579173,N
98,2123657,-0.0072,-3.8548,9.1502,1.5400,0.2800,-1.4700,999.1102,0.0248,-4.3309,8.7985,1590579173,N
98,2124702,-0.0622,-3.7711,9.1597,0.3500,-0.2100,0.8400,999.1104,0.0079,0.7519,9.7778,1590579174,N
98,2125666,-0.0479,-3.9529,9.0951,0.5600,0.5600,-0.7000,999.1100,-0.0060,-3.4200,9.1910,1590579174,N
98,2126450,-0.0072,-4.0439,9.1454,2.7300,0.5600,-4.7600,999.1089,-0.0029,-1.6454,9.6676,1590579174,N
98,2124091,0.1938,-3.4768,9.5091,-8.1200,-3.4300,-4.1300,999.1080,0.0731,-3.6592,9.0981,1590579174,N
98,2123986,-0.3302,-4.1755,9.5785,-29.6100,-11.6900,-4.6200,999.1072,0.0822,-6.0710,7.7010,1590579174,N
97,2124661,-0.0191,-6.2836,10.8538,-101.5700,-47.4600,-45.8500,999.1067,0.5675,-6.2020,7.5752,1590579174,N
98,2123675,1.5817,-7.0851,8.3821,-70.2800,-78.8900,-120.8200,999.1071,1.7203,-6.2501,7.3585,1590579174,N
97,2116659,3.8142,-6.9153,4.6301,-184.5200,-50.0500,-142.5900,999.1077,3.2135,-7.2129,5.8153,1590579174,N
97,2094838,5.1757,-6.2859,5.0489,21.7700,-13.1600,-168.2100,999.1080,4.5691,-6.2601,6.0087,1590579174,N
97,2078313,6.3912,-3.3978,4.6325,59.4300,-28.9800,-155.2600,999.1082,5.8990,-4.8465,6.1549,1590579174,N
97,2063818,8.1978,0.2058,4.2401,2.8000,-61.1100,-108.0100,999.1083,7.5013,-3.0751,5.5177,1590579175,N
97,2054908,8.8774,0.2441,2.3521,40.4600,-53.0600,-86.0300,999.1078,8.6894,-1.3958,4.3262,1590579175,N
97,2050559,9.5785,2.2421,-0.5599,23.8700,-30.1000,-63.1400,999.1068,9.6382,0.1837,1.8007,1590579175,N
97,2049552,9.5450,2.6824,1.7252,40.6000,-11.6900,-54.2500,999.1061,7.7944,0.9684,5.8720,1590579175,N
97,2053216,9.0497,3.2303,1.6869,16.9400,-14.5600,-39.5500,999.1053,8.5987,1.8474,4.3381,1590579175,N
97,2053369,8.7841,5.3001,1.3687,25.4800,7.2800,-21.0700,999.1046,8.7261,2.6374,3.6151,1590579175,N
97,2049124,8.8056,3.4481,1.1629,-41.3000,-1.8200,2.4500,999.1033,8.8778,2.7123,3.1622,1590579175,N
97,2045385,8.5280,4.4243,1.5194,-53.9000,9.1000,1.6100,999.1019,8.8507,2.8960,3.0738,1590579175,N
97,2040381,8.6142,2.6584,1.6199,17.1500,15.5400,6.4400,999.1005,8.9292,2.9287,2.8041,1590579175,N
97,2033255,9.1717,4.0510,1.7611,2.1700,13.2300,-0.0700,999.0984,8.8920,3.1563,2.6721,1590579175,N
97,2028882,8.6883,3.7280,2.5053,20.7900,9.8000,2.4500,999.0966,8.8289,3.3430,2.6543,1590579176,N
97,2025250,8.8750,3.5055,2.3402,25.5500,-2.0300,0.3500,999.0954,8.8349,3.4406,2.5055,1590579176,N
97,2021783,9.0066,4.4602,1.6726,24.8500,-3.2200,4.0600,999.0943,8.8271,3.6409,2.2354,1590579176,N
97,2022723,8.7864,3.7161,1.7803,37.2400,-0.1400,12.6000,999.0925,8.8471,3.7091,2.0349,1590579176,N
97,2022814,9.2267,3.1968,1.3543,-4.6200,-2.7300,8.5400,999.0908,8.9628,3.5113,1.8735,1590579176,N
97,2022026,9.1669,3.5844,1.1246,-2.5900,1.8200,2.8700,999.0892,8.9901,3.5118,1.7368,1590579176,N
97,2020732,9.0329,3.4911,1.6128,-7.2100,7.2100,0.1400,999.0881,8.9742,3.5290,1.7832,1590579176,N
97,2016138,9.1286,3.3858,1.8951,-1.1900,5.9500,-0.2800,999.0876,8.9609,3.5283,1.8505,1590579176,N
97,2007169,9.1047,3.5151,1.9525,-2.1700,3.2200,0.7000,999.0872,8.9548,3.5209,1.8934,1590579176,N
97,2000352,9.0377,3.5055,2.0100,-0.9100,1.6800,0.9800,999.0865,8.9525,3.5092,1.9259,1590579176,N
97,1996892,9.1262,3.5916,1.7659,-1.1200,1.6800,-0.5600,999.0859,8.9500,3.5268,1.9050,1590579177,N
97,1994118,8.9731,3.4816,2.1799,-2.1000,1.4700,1.6100,999.0859,8.9463,3.5006,1.9697,1590579177,N
97,1992181,9.0233,3.4887,2.0530,0.4900,-0.5600,0.4200,999.0859,8.9503,3.4866,1.9764,1590579177,N
97,1987071,8.9850,3.5079,1.9190,6.7200,2.1700,0.0700,999.0864,8.9370,3.5267,1.9653,1590579177,N
97,1978433,9.0185,3.6897,2.2038,4.9700,-1.6800,-0.7000,999.0867,8.9205,3.5596,1.9809,1590579177,N
97,1973672,9.0377,3.6754,1.9262,3.6400,-2.4500,-0.9800,999.0862,8.9220,3.5788,1.9390,1590579177,N
96,1971168,9.0616,3.6969,1.7300,-3.8500,0.7000,0.8400,999.0853,8.9300,3.5769,1.9055,1590579177,N
96,1969295,9.0114,3.5055,2.0148,-2.5900,3.0100,1.0500,999.0844,8.9274,3.5582,1.9521,1590579177,N
96,1967643,9.0497,3.5031,2.1846,1.9600,-0.7700,-0.5600,999.0836,8.9265,3.5437,1.9826,1590579177,N
96,1961220,9.0520,3.6299,1.8808,3.2200,-1.4700,-0.6300,999.0823,8.9295,3.5597,1.9397,1590579177,N
96,1953452,9.2554,3.4457,1.7850,-0.9800,2.1000,1.0500,999.0815,8.9487,3.5235,1.9174,1590579178,N
96,1949160,9.2219,3.6060,2.0961,-3.6400,1.8900,-0.9100,999.0801,8.9383,3.5237,1.9649,1590579178,N
96,1946598,8.9850,3.5725,2.0985,1.8200,-2.3800,-3.0800,999.0787,8.9289,3.5442,1.9707,1590579178,N
96,1945366,9.1980,3.7017,1.9358,1.4700,-1.6100,-0.1400,999.0770,8.9339,3.5503,1.9366,1590579178,N
96,1945472,9.3918,3.4481,1.8233,0.2100,-1.2600,-0.1400,999.0750,8.9636,3.4999,1.8909,1590579178,N
96,1941718,10.3370,3.1561,1.7970,3.2900,16.2400,7.3500,999.0735,8.9521,3.4818,1.9767,1590579178,N
96,1944792,8.6046,4.5511,1.4524,-33.3900,21.5600,-9.5900,999.0731,8.7973,3.7663,2.1431,1590579178,N
96,1952114,8.2002,3.5270,3.4744,-25.6200,22.0500,11.4100,999.0729,8.7039,3.6768,2.6254,1590579178,N
96,1958217,9.0066,2.4431,4.3047,-14.4900,10.9900,6.2300,999.0729,8.7082,3.3505,3.0184,1590579178,N
95,1963075,8.8295,3.0413,3.7807,4.4800,-12.8800,-7.8400,999.0731,8.7129,3.3037,3.0563,1590579178,N
96,1966758,8.6501,3.3308,3.1418,4.9000,-21.4200,-9.6600,999.0729,8.7503,3.3257,2.9226,1590579179,N
95,1963037,8.7673,3.6969,2.4503,14.0000,-11.4100,-4.6900,999.0728,8.7775,3.4318,2.7107,1590579179,N
95,1960657,9.0808,3.6108,2.4790,-5.4600,-1.6100,-2.2400,999.0728,8.7895,3.4424,2.6579,1590579179,N
95,1961016,8.7218,3.8046,2.7661,-4.6900,-3.7100,-1.5400,999.0720,8.7698,3.4883,2.6633,1590579179,N
95,1960858,8.9946,3.4744,2.7039,1.1200,-0.2800,0.2800,999.0710,8.7794,3.4711,2.6541,1590579179,N
95,1959114,8.9970,3.5821,2.5364,-0.2800,-0.1400,-4.2000,999.0709,8.7712,3.5102,2.6296,1590579179,N
96,1956404,8.8391,3.6682,2.7876,-3.2200,4.2700,1.0500,999.0701,8.7446,3.5295,2.6917,1590579179,N
95,1950668,8.8199,3.4887,2.8881,-2.5900,2.8000,0.2800,999.0702,8.7313,3.5152,2.7528,1590579179,N
96,1947351,8.7721,3.5605,2.9025,-2.8000,-0.9100,-0.2100,999.0702,8.7265,3.5068,2.7787,1590579179,N
96,1946405,8.9515,3.5270,2.8977,1.4700,0.1400,1.9600,999.0708,8.7351,3.4837,2.7806,1590579179,N
96,1946109,8.9133,3.3571,2.8570,-1.6100,-2.8000,-3.1500,999.0706,8.7458,3.4578,2.7794,1590579180,N
96,1946399,8.7410,3.5653,2.7661,-7.7000,-2.5200,-3.0800,999.0710,8.7401,3.4674,2.7853,1590579180,N
96,1943740,8.4778,3.6156,2.7709,1.0500,-0.5600,6.3700,999.0717,8.7475,3.4611,2.7699,1590579180,N
96,1938802,9.2842,3.3547,3.0365,-4.9700,1.2600,6.3700,999.0721,8.7829,3.3453,2.7999,1590579180,N
96,1936804,8.9324,3.2423,2.7206,10.5700,-5.0400,-2.1000,999.0720,8.8076,3.3485,2.7176,1590579180,N
96,1936142,9.2052,3.2710,2.6130,-2.5900,-2.0300,-3.2900,999.0723,8.8281,3.3239,2.6808,1590579180,N
96,1936073,8.5472,3.9505,2.4622,-0.8400,-1.6100,-5.4600,999.0719,8.7757,3.4849,2.6483,1590579180,N
96,1937050,8.7553,3.6156,2.6776,-10.3600,10.9900,6.2300,999.0718,8.7496,3.4717,2.7500,1590579180,N
96,1933904,8.9587,3.3547,2.9097,-2.9400,9.9400,2.8000,999.0710,8.7294,3.4430,2.8484,1590579180,N
96,1930015,8.8534,3.1513,3.4002,-6.1600,5.0400,-1.4000,999.0705,8.7004,3.3831,3.0048,1590579180,N
97,1929786,8.5543,3.4983,3.3069,-4.0600,-0.2100,-2.2400,999.0708,8.6630,3.4106,3.0807,1590579181,N
96,1931540,8.5878,3.5103,3.3380,2.8700,-3.2200,1.6100,999.0714,8.6583,3.4132,3.0910,1590579181,N
97,1934213,8.7673,3.2853,3.2351,6.5100,-7.0000,-0.7000,999.0721,8.6874,3.3826,3.0426,1590579181,N
97,1937274,8.3653,3.4170,2.9551,13.4400,-13.9300,0.6300,999.0724,8.7315,3.3973,2.8964,1590579181,N
97,1935579,9.1741,3.1705,2.5914,-11.4100,-12.8100,0.5600,999.0720,8.8323,3.2526,2.7534,1590579181,N
97,1933305,9.4851,3.5797,1.6463,17.1500,-3.9200,-6.1600,999.0716,8.8752,3.3792,2.4460,1590579181,N
97,1932967,8.7003,4.1803,2.0219,-10.5000,11.2000,1.4000,999.0720,8.8063,3.5346,2.4749,1590579181,N
97,1933042,8.9922,3.2566,3.1968,-17.9200,15.2600,3.5000,999.0724,8.7579,3.4437,2.7588,1590579181,N
97,1934321,8.6142,3.3595,3.6227,0.4900,-1.0500,0.2100,999.0726,8.7179,3.4217,2.9088,1590579181,N
97,1936357,8.8654,3.4026,2.6919,18.9700,-10.7100,0.9100,999.0727,8.7762,3.4243,2.7247,1590579181,N
97,1933846,9.1334,3.5773,1.9693,9.5900,-1.0500,-3.2200,999.0732,8.8025,3.5000,2.5370,1590579182,N
97,1931305,8.6118,3.5318,2.6824,-4.4100,5.2500,-0.7000,999.0724,8.7643,3.5300,2.6263,1590579182,N
97,1931292,8.6596,3.4193,3.1801,-1.9600,2.8700,1.7500,999.0718,8.7364,3.4999,2.7562,1590579182,N
97,1932734,8.5902,3.6060,2.3545,9.8700,-3.7800,3.3600,999.0718,8.7668,3.5267,2.6222,1590579182,N
97,1935248,9.0497,4.0080,2.3426,-15.2600,7.0700,1.1200,999.0714,8.7447,3.5661,2.6427,1590579182,N
98,1936412,8.6572,3.0389,3.8285,-3.9900,-3.0100,0.7000,999.0712,8.7341,3.4310,2.8486,1590579182,N
97,1931845,8.8295,3.4385,2.4526,23.3800,-7.3500,0.4900,999.0718,8.7790,3.4762,2.6488,1590579182,N
97,1928850,9.0497,3.6562,2.0578,-3.3600,-2.8000,-0.2800,999.0723,8.8169,3.4830,2.5102,1590579182,N
98,1929504,9.2435,3.5342,2.7517,-2.3100,3.8500,0.9100,999.0715,8.8081,3.4637,2.5672,1590579182,N
98,1930299,8.8846,3.4361,2.6417,3.4300,-4.2000,-6.4400,999.0708,8.7998,3.4961,2.5517,1590579182,N
98,1931641,8.8582,3.9410,2.2325,-0.3500,2.5900,-1.1200,999.0704,8.7743,3.5922,2.5057,1590579183,N
98,1931447,8.8534,3.3188,3.0939,0.0700,0.7000,0.3500,999.0706,8.7666,3.5301,2.6181,1590579183,N
98,1927612,8.8367,3.7496,2.2971,1.4000,-2.5200,-4.1300,999.0707,8.7639,3.5954,2.5370,1590579183,N
98,1927905,8.8463,3.8022,2.5771,-7.2800,3.2200,-4.1300,999.0707,8.7267,3.6475,2.5906,1590579183,N
98,1931289,8.6501,3.3930,2.8499,-0.2100,-1.3300,-1.7500,999.0699,8.7265,3.6106,2.6424,1590579183,N
98,1933661,8.8199,3.7208,2.4431,-0.2100,0.2800,0.4200,999.0700,8.7335,3.6243,2.6003,1590579183,N
98,1936026,8.8678,3.4887,2.7087,-6.0900,0.2800,0.3500,999.0706,8.7459,3.5689,2.6348,1590579183,N
98,1935393,8.7721,3.5390,2.6297,2.8000,-1.7500,-2.2400,999.0708,8.7461,3.5812,2.6173,1590579183,N
98,1932532,8.7027,3.5055,2.7757,0.6300,-3.5000,-0.4200,999.0710,8.7539,3.5583,2.6227,1590579183,N
98,1931978,8.8343,3.6778,2.5196,3.4300,-4.5500,-2.2400,999.0718,8.7625,3.5839,2.5583,1590579183,N
98,1932768,8.9109,3.7950,2.4718,3.1500,-3.3600,-0.5600,999.0729,8.7689,3.6103,2.4984,1590579184,N
98,1934038,9.0209,3.6491,2.4335,6.4400,-4.6200,-3.3600,999.0745,8.7813,3.6276,2.4289,1590579184,N
98,1936395,8.8487,3.7663,2.1081,5.9500,-1.1900,-1.2600,999.0755,8.7853,3.6761,2.3400,1590579184,N
99,1934313,8.8774,3.7950,2.3306,-2.6600,2.9400,1.1900,999.0759,8.7757,3.6865,2.3593,1590579184,N
99,1932130,8.8271,3.7232,2.5101,-1.9600,1.0500,1.1900,999.0765,8.7704,3.6759,2.3953,1590579184,N
99,1932721,8.9037,3.6586,2.3928,1.8900,-1.6100,0.3500,999.0762,8.7837,3.6598,2.3714,1590579184,N
99,1933979,8.9396,3.5940,2.3306,2.9400,-1.4700,0.3500,999.0765,8.8012,3.6387,2.3386,1590579184,N
99,1935620,8.8152,3.8764,2.1583,-2.2400,1.8200,-1.9600,999.0767,8.7803,3.6982,2.3238,1590579184,N
99,1937435,8.8415,3.5174,2.5484,-5.1100,3.9200,1.8900,999.0775,8.7800,3.6459,2.4062,1590579184,N
99,1933827,9.0114,3.5462,2.5747,-3.8500,1.8900,-3.1500,999.0779,8.7708,3.6318,2.4606,1590579184,N
99,1931491,8.4634,3.8572,2.5053,-1.4700,-5.4600,-2.5900,999.0786,8.7543,3.6802,2.4472,1590579185,N
99,1932045,8.9803,3.7472,2.2588,3.2200,6.0200,3.7100,999.0797,8.7543,3.6914,2.4304,1590579185,N
99,1933852,9.1047,4.5799,2.4526,48.0200,15.1200,-12.8800,999.0814,8.5395,4.1771,2.4080,1590579185,N
99,1938013,8.4682,4.5296,3.1346,0.3500,2.6600,-2.8000,999.0826,8.4550,4.2615,2.5539,1590579185,N
100,1940945,8.7601,4.2066,2.5460,-1.6800,1.7500,-2.3100,999.0838,8.4588,4.2493,2.5616,1590579185,N
100,1939521,8.5089,4.1013,2.6991,-19.5300,-2.8700,2.1000,999.0841,8.5091,4.1100,2.6216,1590579185,N
100,1939140,9.1214,3.6969,2.9791,-14.9800,-4.4100,0.4200,999.0841,8.5838,3.9131,2.6790,1590579185,N
100,1943346,8.6309,4.9340,2.6608,13.2300,-0.2800,3.0100,999.0842,8.5220,4.0912,2.6093,1590579185,N
100,1949344,8.7338,4.3502,2.5340,-0.5600,4.9000,5.1100,999.0836,8.5175,4.1008,2.6089,1590579185,N
100,1954862,8.7242,4.1180,2.8857,-15.7500,0.3500,4.5500,999.0834,8.5450,3.9902,2.6894,1590579185,N
100,1957895,8.5543,2.5579,3.4050,-20.0200,-5.4600,9.8700,999.0830,8.6869,3.5433,2.8554,1590579186,N
100,1961828,9.0353,2.7230,2.7470,5.3200,-17.5000,4.5500,999.0819,8.8429,3.2875,2.6770,1590579186,N
100,1963524,8.9946,3.7089,2.0650,18.3400,-10.7100,-1.8900,999.0813,8.8813,3.3823,2.4192,1590579186,N
100,1962943,9.0544,3.4887,2.1392,7.5600,6.3000,1.8900,999.0815,8.8719,3.4331,2.3821,1590579186,N
100,1963510,8.9348,3.6467,2.8092,3.6400,7.8400,6.2300,999.0820,8.8320,3.4588,2.4905,1590579186,N
100,1968303,9.0377,2.8881,2.9623,6.3000,2.2400,3.9900,999.0827,8.8585,3.3305,2.5700,1590579186,N
100,1969319,9.0377,3.3356,2.4981,15.1900,0.3500,0.2800,999.0831,8.8599,3.3704,2.5126,1590579186,N
100,1970021,8.8893,3.6562,3.0126,16.6600,3.7100,0.2800,999.0837,8.7973,3.4813,2.5805,1590579186,N
101,1971038,8.9707,3.0748,2.5819,4.4100,-1.1900,-1.6100,999.0844,8.8270,3.4171,2.5646,1590579186,N
101,1971533,9.0257,3.2566,2.6130,3.7100,-1.3300,0.2100,999.0840,8.8468,3.3790,2.5471,1590579186,N
101,1970967,8.9731,3.2136,2.5531,1.8200,-0.2800,0.2100,999.0841,8.8627,3.3438,2.5381,1590579187,N
101,1968848,8.9922,3.3835,2.5029,0.8400,-0.1400,0.2800,999.0842,8.8678,3.3432,2.5211,1590579187,N
101,1964180,9.0090,3.2686,2.5771,0.2100,0.2800,0.3500,999.0839,8.8751,3.3191,2.5270,1590579187,N
101,1961847,9.0138,3.2925,2.6082,-1.1200,1.2600,0.2800,999.0837,8.8747,3.3042,2.5479,1590579187,N
101,1961189,8.9803,3.2351,2.7063,2.9400,0.0700,-1.1200,999.0829,8.8699,3.3009,2.5690,1590579187,N
101,1960071,8.9994,3.4600,2.5627,7.8400,-0.0700,-1.9600,999.0822,8.8546,3.3611,2.5435,1590579187,N
101,1959369,8.9946,3.4289,2.5699,-1.0500,0.4200,0.5600,999.0816,8.8553,3.3579,2.5453,1590579187,N
101,1955187,9.0281,3.2782,2.6584,-0.4200,-0.9100,0.2100,999.0822,8.8659,3.3241,2.5529,1590579187,N
101,1951003,8.9731,3.4528,2.5005,-0.5600,-0.3500,0.4200,999.0834,8.8675,3.3344,2.5337,1590579187,N
101,1949385,8.9635,3.1872,2.6632,-1.1200,0.6300,0.6300,999.0848,8.8744,3.2941,2.5621,1590579187,N
101,1948284,9.0138,3.4265,2.4909,1.3300,2.1700,0.4900,999.0867,8.8675,3.3199,2.5526,1590579188,N
101,1948177,8.9946,3.3763,2.7206,-3.0100,2.2400,1.6100,999.0884,8.8595,3.3066,2.5974,1590579188,N
101,1947398,9.0138,3.2351,2.7589,-0.8400,0.7700,0.9800,999.0894,8.8628,3.2745,2.6264,1590579188,N
101,1943082,8.9539,3.0508,2.7637,-0.7000,1.1200,0.6300,999.0900,8.8714,3.2235,2.6604,1590579188,N
101,1940374,8.9659,3.2447,2.7254,3.4300,0.3500,-0.0700,999.0907,8.8677,3.2327,2.6614,1590579188,N
101,1939788,8.9779,3.2040,2.6201,-0.0700,-0.2800,0.0700,999.0909,8.8768,3.2199,2.6468,1590579188,N
102,1939804,8.9468,3.2279,2.6967,1.0500,-0.2100,-0.0700,999.0909,8.8766,3.2191,2.6482,1590579188,N
102,1940406,8.9994,3.1370,2.6895,0.8400,0.4900,-0.0700,999.0901,8.8815,3.2015,2.6533,1590579188,N
102,1939183,8.9994,3.1681,2.6919,0.1400,0.4900,0.0700,999.0891,8.8842,3.1897,2.6585,1590579188,N
102,1935424,8.9635,3.2207,2.7063,0.6300,0.9800,0.4900,999.0882,8.8808,3.1916,2.6676,1590579188,N
102,1933651,9.0138,3.1561,2.7374,0.8400,0.7000,0.4200,999.0873,8.8829,3.1782,2.6767,1590579189,N
102,1933329,8.9563,3.1825,2.7781,3.2900,0.7000,-0.2100,999.0867,8.8759,3.1870,2.6890,1590579189,N
102,1933615,8.8917,3.2662,2.8307,5.2500,-1.0500,-0.9800,999.0866,8.8638,3.2171,2.6935,1590579189,N
102,1934411,9.0066,3.1442,2.2971,8.2600,-8.1900,-3.3600,999.0865,8.9083,3.2213,2.5368,1590579189,N
102,1932051,9.0281,3.7854,1.8999,7.2100,0.4200,-0.2100,999.0870,8.9027,3.3469,2.3896,1590579189,N
102,1928297,8.9611,3.1370,2.7589,-7.9800,3.6400,1.4700,999.0882,8.8963,3.2801,2.5036,1590579189,N
103,1926973,8.9611,3.3428,2.5125,3.7800,-2.1700,0.4900,999.0897,8.9029,3.2849,2.4734,1590579189,N
103,1927089,9.0353,3.4863,2.2588,-2.2400,-0.1400,0.1400,999.0903,8.9071,3.3072,2.4284,1590579189,N
103,1927628,8.9587,3.2973,2.4526,-2.3800,1.0500,0.2100,999.0909,8.9062,3.2977,2.4444,1590579189,N
103,1928824,9.0951,3.3069,2.5125,-0.7000,-0.8400,0.0700,999.0921,8.9129,3.2803,2.4434,1590579189,N
103,1926533,9.0018,3.3236,2.4718,-1.1200,-0.6300,0.4900,999.0931,8.9168,3.2719,2.4406,1590579190,N
103,1923624,9.0855,3.2925,2.4909,-4.9000,-1.5400,-0.0700,999.0930,8.9266,3.2436,2.4423,1590579190,N
103,1923239,8.9755,3.2495,2.3928,-1.5400,-1.3300,-0.0700,999.0929,8.9356,3.2325,2.4241,1590579190,N
103,1923714,9.0784,3.3093,2.3498,1.1200,-0.9800,-0.3500,999.0925,8.9412,3.2403,2.3929,1590579190,N
103,1924807,9.0162,3.3811,2.4144,0.9800,-0.2800,-0.7000,999.0924,8.9325,3.2673,2.3886,1590579190,N
103,1926370,9.0305,3.3787,2.3545,-0.1400,-0.0700,-0.1400,999.0915,8.9305,3.2817,2.3762,1590579190,N
103,1924099,9.0329,3.3380,2.3713,0.7700,-0.0700,0.2100,999.0903,8.9315,3.2858,2.3670,1590579190,N
103,1922073,9.0401,3.4457,2.4000,0.7000,0.3500,0.2100,999.0891,8.9232,3.3086,2.3664,1590579190,N
104,1921975,8.9037,3.3284,2.3330,-7.0700,2.9400,1.4000,999.0879,8.9199,3.2948,2.3978,1590579190,N
103,1922563,9.0114,3.1513,2.6608,-0.0700,1.5400,0.9100,999.0864,8.9175,3.2591,2.4549,1590579190,N
103,1923991,9.0114,3.3356,2.4383,3.5000,-0.7700,-0.4200,999.0861,8.9168,3.2777,2.4326,1590579191,N
