0,2369892,7.4656,-1.3543,6.4822,0.0700,0.7700,0.5600,999.1570,7.3350,-1.3834,6.3603,1590578853,S
0,2374941,7.4178,-1.4070,6.4247,-0.6300,-0.0700,-0.1400,999.1494,7.3411,-1.3748,6.3551,1590578853,S
0,2375618,7.4130,-1.3807,6.4822,-0.0700,-0.2100,-0.2100,999.1418,7.3440,-1.3774,6.3513,1590578853,S
0,2376533,7.4943,-1.3807,6.5611,-1.1200,-0.1400,0.1400,999.1342,7.3444,-1.3798,6.3503,1590578853,S
0,2147483647,7.4393,-1.4309,6.4630,0.2100,-0.9800,-0.4900,999.1277,7.3460,-1.3694,6.3507,1590578853,S
0,2147483647,7.4369,-1.3807,6.4869,0.1400,-1.2600,-1.1200,999.1219,7.3583,-1.3704,6.3362,1590578853,S
0,932933,7.4800,-1.2945,6.4487,-0.2100,-1.4000,-0.9100,999.1165,7.3681,-1.3637,6.3262,1590578853,S
0,1123680,7.5159,-1.2826,6.3841,0.1400,-1.4700,-0.9100,999.1116,7.3834,-1.3400,6.3135,1590578853,S
0,1128032,7.4847,-1.3615,6.3601,0.2100,-0.8400,-0.4200,999.1073,7.3964,-1.3215,6.3021,1590578853,S
0,1829424,7.5302,-1.3089,6.3841,0.4900,-0.7700,0.4200,999.1039,7.3951,-1.3266,6.3026,1590578854,S
0,1841594,7.5302,-1.3017,6.4463,0.2100,0.2800,0.9100,999.1016,7.3879,-1.3232,6.3118,1590578854,S
0,1838837,7.4895,-1.3184,6.4199,0.4200,0.4200,1.1200,999.0988,7.3722,-1.3184,6.3311,1590578854,S
0,1838473,7.5254,-1.1701,6.4056,-0.5600,0.4200,1.8900,999.0961,7.3582,-1.3273,6.3455,1590578854,S
0,1838685,7.3292,-1.5194,6.2931,-37.3800,14.4900,14.8400,999.0940,7.3863,-1.5378,6.2648,1590578854,S
0,2015326,7.2550,-2.5077,5.9892,-33.4600,-1.6100,6.6500,999.0925,7.4971,-1.7121,6.0854,1590578854,S
0,2018792,7.1426,-2.5890,6.5755,-36.8200,17.9200,-5.3900,999.0925,7.5138,-2.0038,5.9747,1590578854,S
0,1936411,7.0229,-2.4790,6.7143,3.1500,3.9900,2.9400,999.0923,7.3463,-2.1197,6.1407,1590578854,S
0,1932224,7.2407,-2.4359,6.6544,11.2000,2.0300,3.4300,999.0914,7.1743,-2.1552,6.3289,1590578854,S
0,1933635,6.9583,-2.5029,5.8265,46.3400,8.5400,3.8500,999.0908,6.8590,-2.0006,6.7173,1590578854,S
0,1936422,6.0993,-2.1488,7.3962,17.2200,50.5400,8.8200,999.0900,6.4914,-2.0791,7.0505,1590578855,S
0,1942539,5.8983,-1.8473,7.8987,-39.6200,38.2200,5.8800,999.0890,6.3154,-2.3251,7.1330,1590578855,S
0,1951246,5.2499,-1.8592,7.1856,-31.9200,45.7800,11.6200,999.0889,5.9851,-2.4429,7.3744,1590578855,S
0,1959547,4.2927,-3.7639,8.4802,-40.8800,56.4200,22.0500,999.0883,5.5813,-2.6657,7.6101,1590578855,S
0,1966396,4.6038,-4.6828,9.0879,-22.6100,23.6600,8.6100,999.0868,5.1151,-3.0261,7.8005,1590578855,S
0,1971571,4.5751,-2.3043,7.7145,-17.9900,22.0500,64.7500,999.0846,4.5216,-3.5054,7.9648,1590578855,S
0,1970493,1.6056,-5.6064,8.1835,14.1400,-22.7500,90.0900,999.0826,4.3483,-3.5537,8.0395,1590578855,S
0,1965304,1.5936,-4.1827,8.1500,86.7300,36.6100,25.9700,999.0815,3.2253,-3.2823,8.6599,1590578855,S
0,1956781,0.3111,-3.4624,8.3533,5.5300,28.2100,49.4900,999.0813,2.5754,-3.5367,8.7767,1590578855,S
0,1950091,0.0766,-4.3908,8.5878,48.4400,-0.1400,49.0000,999.0809,1.9430,-3.4818,8.9595,1590578855,S
0,1948740,0.0287,-4.4100,9.9517,90.3700,7.5600,14.2800,999.0821,1.4091,-2.9915,9.2323,1590578856,S
0,1949244,-0.2632,-1.6822,8.9779,98.0000,15.6800,-7.4200,999.0828,1.0144,-1.9579,9.5555,1590578856,S
0,1950746,-0.9763,-1.1079,10.9113,37.4500,9.6600,29.2600,999.0837,0.6500,-2.0355,9.5710,1590578856,S
0,1952330,-1.5266,-1.1007,9.8728,70.4900,11.0600,-7.1400,999.0853,1.1175,-5.9089,7.7464,1590578856,S
0,1949428,1.4046,1.5362,11.4736,42.7700,58.1000,-16.9400,999.0870,-1.1659,-5.9527,7.7056,1590578856,S
0,1948924,-2.7398,2.6345,7.6762,0.6300,48.3700,-8.1900,999.0884,-1.3405,9.5056,2.0044,1590578856,S
0,1952252,-4.1085,1.6750,5.1589,-102.4100,-87.8500,53.2700,999.0900,-0.0662,-0.3756,9.7992,1590578856,S
0,1956309,2.3258,-3.4911,17.1733,165.2700,-52.0800,-1.1200,999.0917,-0.7718,0.0403,9.7762,1590578856,S
0,1961373,-2.0841,1.0289,9.6263,11.2000,9.8700,-21.6300,999.0936,-0.3620,0.0838,9.7996,1590578856,S
0,1962648,0.5240,-1.1198,10.5739,-8.2600,0.2800,4.0600,999.0948,-1.6374,-0.8457,9.6319,1590578856,S
0,1960498,-0.5886,-0.9260,10.8371,6.7200,3.1500,3.5000,999.0970,-0.9277,-0.9383,9.7175,1590578857,S
0,1960308,-0.9141,-0.5934,9.6287,7.9800,-0.8400,3.7800,999.0980,-0.9766,-0.8700,9.7190,1590578857,S
0,1961057,-0.7059,0.1005,10.0594,5.1800,0.9100,0.9100,999.0984,-1.2961,-0.8783,9.6809,1590578857,S
0,1962243,-0.6078,0.0814,9.5354,-6.9300,-5.8100,-3.0100,999.0984,-1.3134,-0.5083,9.7050,1590578857,S
0,1963662,-0.8112,-0.4235,9.7795,-0.2800,-1.7500,0.6300,999.0988,-1.4546,-0.3631,9.6914,1590578857,S
0,1961924,-0.5408,-0.3661,9.8273,-8.8900,2.3100,1.2600,999.0992,-1.3466,-0.4165,9.7048,1590578857,S
0,1961537,-0.7490,-0.3206,10.3107,-9.1000,7.7700,6.0200,999.0986,-0.4323,-0.1690,9.7957,1590578857,S
0,1961689,-0.9547,-0.9619,9.8082,0.4200,0.7000,-0.5600,999.0975,-0.4744,-0.1942,9.7932,1590578857,S
0,1962723,-0.7131,-0.6963,9.8871,3.9900,0.7000,0.4200,999.0966,-0.5724,-0.3055,9.7852,1590578857,S
0,1964152,-0.5551,-0.7585,10.0283,9.5900,-1.4000,-0.7000,999.0960,-0.5381,-0.2893,9.7876,1590578857,S
0,1961520,-0.8853,-0.0287,9.9829,6.8600,-2.3100,-5.6000,999.0952,-0.4954,-0.3102,9.7892,1590578858,S
0,1960891,-0.7657,-0.3063,9.9039,2.8000,-1.2600,1.1200,999.0944,-0.5018,-0.2243,9.7912,1590578858,S
0,1962269,-0.7059,-0.4475,9.8106,-0.9800,0.0700,-0.4200,999.0937,-0.5473,-0.2493,9.7882,1590578858,S
0,1963787,-0.7968,-0.4451,9.8752,2.1000,0.4900,2.2400,999.0937,-0.5691,-0.2699,9.7864,1590578858,S
0,1965959,-0.7202,-0.5073,9.7412,5.1100,4.6200,1.3300,999.0939,-0.6146,-0.2697,9.7837,1590578858,S
0,1966209,-1.1222,-0.0957,10.0881,6.4400,7.0700,-2.3800,999.0933,-0.6568,-0.2802,9.7806,1590578858,S
0,1964904,-0.8423,-0.0550,9.8489,-7.1400,-1.5400,1.8900,999.0936,-0.7499,-0.3051,9.7732,1590578858,S
0,1966057,-0.8758,-0.0981,9.8441,0.7000,0.2100,-0.3500,999.0935,-0.7438,-0.2457,9.7753,1590578858,S
0,1968462,-1.0409,-0.2058,9.8632,0.9800,0.0700,-0.2100,999.0930,-0.7401,-0.2062,9.7765,1590578858,S
0,1971119,-0.9452,-0.1268,9.8824,1.7500,0.0700,0.7000,999.0923,-0.7604,-0.1905,9.7753,1590578858,S
0,1972884,-1.0050,-0.2632,9.7795,1.8200,-0.9800,3.1500,999.0917,-0.7431,-0.1582,9.7772,1590578859,S
0,1971364,-0.9500,0.1340,9.8417,2.5900,-0.9800,2.2400,999.0914,-0.7432,-0.1534,9.7772,1590578859,S
0,1972684,-0.8734,-0.0311,9.8154,-5.3200,-0.1400,-3.3600,999.0905,-0.8462,-0.1461,9.7690,1590578859,S
0,1974626,-0.9356,-0.2800,9.8106,-5.7400,1.4000,-4.4800,999.0892,-1.0052,-0.1775,9.7534,1590578859,S
0,1976669,-1.1151,-0.6365,9.8991,3.2200,-1.7500,0.0700,999.0878,-0.8903,-0.1668,9.7647,1590578859,S
0,1978628,-1.1151,-0.4092,9.9589,-0.1400,-2.1000,3.6400,999.0876,-0.9484,-0.2496,9.7575,1590578859,S
0,1977225,-0.7585,-0.2106,9.8536,-0.7000,-1.2600,1.6800,999.0884,-0.9823,-0.2824,9.7532,1590578859,S
0,1977957,-0.9284,-0.2417,9.8249,-3.0800,-0.3500,-2.8700,999.0883,-0.9774,-0.2965,9.7533,1590578859,S
0,1979704,-0.8901,-0.4187,9.8417,-7.0700,-0.7700,-1.7500,999.0884,-1.0705,-0.3488,9.7418,1590578859,S
0,1980895,-0.9858,-0.3637,9.9063,0.7000,0.0700,-0.0700,999.0891,-1.0081,-0.3554,9.7482,1590578859,S
0,1982568,-0.6963,-0.6197,9.8417,6.1600,-0.6300,2.9400,999.0897,-0.9119,-0.2977,9.7596,1590578860,S
0,1979868,-0.9571,-0.3182,9.8943,0.2800,1.4000,0.3500,999.0898,-0.8738,-0.3614,9.7610,1590578860,S
0,1979430,-0.9260,-0.4905,9.8249,1.8900,-0.2800,2.1000,999.0893,-0.8656,-0.3335,9.7627,1590578860,S
0,1980367,-0.9021,-0.2345,9.8393,8.1900,1.3300,3.3600,999.0893,-0.8052,-0.2902,9.7692,1590578860,S
0,1981652,-0.9117,-0.1842,9.8656,-0.2100,-0.0700,0.8400,999.0903,-0.8201,-0.2796,9.7683,1590578860,S
0,1982623,-1.1821,-0.1220,9.8680,-5.6000,-1.5400,-0.0700,999.0908,-0.8899,-0.3081,9.7613,1590578860,S
0,1977407,-0.7944,-0.5480,9.8345,-1.3300,0.1400,0.7700,999.0916,-0.9589,-0.2854,9.7555,1590578860,S
0,1974218,-1.1677,0.0144,9.8536,6.0200,-0.6300,1.5400,999.0927,-0.8420,-0.2812,9.7664,1590578860,S
0,1973205,-0.9858,-0.1388,9.8680,3.1500,0.0700,1.4000,999.0935,-0.8290,-0.1967,9.7696,1590578860,S
0,1972997,-0.9571,0.1507,9.9350,-7.0000,-0.4900,-1.8200,999.0958,-0.9648,-0.2485,9.7559,1590578860,S
0,1973004,-0.9571,-0.3733,9.7723,-11.1300,0.4900,-3.7100,999.0986,-1.2442,-0.2707,9.7236,1590578861,S
0,1968499,-1.0457,-0.5121,9.9063,-0.7700,-0.4200,-0.3500,999.1012,-1.1571,-0.2973,9.7336,1590578861,S
0,1967191,-0.8351,-0.1651,9.9374,4.3400,0.6300,1.6100,999.1036,-1.0458,-0.2973,9.7462,1590578861,S
0,1968054,-0.8997,-0.3398,9.8776,-2.6600,0.7000,-2.1700,999.1060,-1.0548,-0.2955,9.7453,1590578861,S
0,1969072,-0.9811,-0.5049,9.8680,-3.7100,-1.1200,-2.1700,999.1086,-1.0581,-0.3369,9.7436,1590578861,S
0,1970125,-0.9093,-0.5910,9.8297,3.5000,-0.0700,0.7000,999.1118,-0.9831,-0.3358,9.7515,1590578861,S
0,1965933,-0.9523,-0.3709,9.8728,3.0100,-0.0700,1.1200,999.1146,-0.9299,-0.3566,9.7559,1590578861,S
0,1964895,-0.9547,-0.3159,9.8489,0.4900,-0.0700,1.1200,999.1163,-0.9272,-0.3535,9.7563,1590578861,S
0,1965684,-0.9284,-0.3494,9.9135,0.7700,-0.3500,1.3300,999.1177,-0.9201,-0.3371,9.7576,1590578861,S
0,1966609,-1.0457,-0.1507,9.9374,0.6300,0.2100,0.6300,999.1177,-0.9139,-0.3328,9.7583,1590578861,S
0,1967081,-0.8973,-0.2560,9.8154,0.4900,0.3500,-0.3500,999.1174,-0.9289,-0.2926,9.7582,1590578862,S
0,1962991,-0.9500,-0.2704,9.8895,2.2400,-0.6300,1.2600,999.1168,-0.8855,-0.2631,9.7630,1590578862,S
0,1962301,-0.9763,-0.2225,9.9039,0.5600,-0.2100,0.4200,999.1158,-0.8856,-0.2583,9.7632,1590578862,S
0,1962922,-0.9739,-0.3302,9.8776,-0.5600,-0.0700,-0.0700,999.1152,-0.9067,-0.2555,9.7613,1590578862,S
0,1963861,-1.0241,-0.3206,9.8704,-1.7500,0.0700,-0.6300,999.1143,-0.9446,-0.2858,9.7569,1590578862,S
0,1963671,-0.9476,-0.3805,9.8417,-0.6300,-0.4200,-0.3500,999.1133,-0.9630,-0.2972,9.7547,1590578862,S
0,1959087,-0.8734,-0.3063,9.8465,1.5400,1.5400,-0.4200,999.1122,-0.9499,-0.3016,9.7559,1590578862,S
0,1957836,-1.0624,-0.5647,9.7364,2.9400,2.5200,2.1000,999.1124,-0.9182,-0.2782,9.7596,1590578862,S
0,1956959,-1.1462,0.1651,9.8656,19.3900,2.6600,6.2300,999.1129,-0.7420,-0.1589,9.7772,1590578862,S
0,1955928,-1.0050,-0.0790,9.8369,6.0200,3.3600,6.3000,999.1133,-2.4474,-0.2610,9.4928,1590578862,S
0,1952380,-1.2419,0.2632,9.8345,5.7400,1.8200,7.4900,999.1136,-2.7339,-0.2122,9.4155,1590578863,S
0,1945791,-0.9380,0.3781,9.8728,6.4400,2.1000,3.2200,999.1139,-3.9839,-0.1131,8.9602,1590578863,S
0,1943483,-1.2802,0.5551,9.8848,-9.3800,-0.2100,-3.9200,999.1145,-5.5625,0.0022,8.0764,1590578863,S
0,1942654,-1.2634,0.1531,9.8010,-7.4200,-0.6300,-3.5000,999.1146,-1.3908,0.0999,9.7070,1590578863,S
0,1942559,-1.1031,0.1364,9.8345,4.0600,-0.8400,0.8400,999.1146,-1.5567,0.1462,9.6812,1590578863,S
0,1939435,-1.1366,0.2871,9.8465,-0.6300,-1.4000,1.4000,999.1139,-1.3661,0.1389,9.7100,1590578863,S
0,1934060,-1.0816,0.2441,9.8273,-4.8300,0.5600,-1.1900,999.1136,-1.0939,0.1239,9.7447,1590578863,S
0,1932942,-1.2012,0.0263,9.7819,-7.4900,-1.6800,-1.6800,999.1127,-0.8335,0.0780,9.7709,1590578863,S
0,1932603,-1.2084,-0.0431,9.7986,0.2800,-1.6800,-0.2800,999.1120,-0.8555,0.0697,9.7690,1590578863,S
0,1933468,-1.1605,0.0072,9.8369,-0.6300,-2.1000,0.5600,999.1115,-0.7926,0.0418,9.7745,1590578863,S
0,1931988,-1.1844,0.1795,9.8728,1.1900,0.0700,0.7700,999.1103,-0.8850,0.0463,9.7665,1590578864,S
0,1927941,-1.1270,0.0694,9.8106,0.2800,-0.7000,0.4900,999.1088,-0.9852,0.0747,9.7568,1590578864,S
0,1927791,-1.1892,0.0407,9.7914,-0.7000,-0.2800,-0.2800,999.1077,-0.9658,0.0670,9.7587,1590578864,S
0,1928396,-1.1270,0.1172,9.7962,2.1700,-0.0700,0.5600,999.1072,-1.1242,0.0817,9.7417,1590578864,S
0,1929650,-1.1677,0.1579,9.8680,-2.4500,-0.1400,0.2100,999.1062,-0.9807,0.0666,9.7573,1590578864,S
0,1928907,-1.1270,0.0646,9.8632,-1.8900,-0.0700,-0.4200,999.1049,-0.9359,0.0670,9.7617,1590578864,S
0,1926020,-1.1916,0.1005,9.8130,0.5600,-1.4000,0.7700,999.1040,-0.9748,0.0713,9.7578,1590578864,S
0,1926844,-1.0816,0.0670,9.7962,-0.8400,-1.0500,0.9800,999.1034,-0.9583,0.0695,9.7595,1590578864,S
0,1928153,-1.1749,0.1220,9.9517,-1.4000,1.9600,-1.6100,999.1024,-0.9198,0.0561,9.7633,1590578864,S
0,1929859,-1.1773,0.1220,9.8297,1.6800,-1.5400,0.0700,999.1000,-1.0526,0.0834,9.7496,1590578864,S
0,1929968,-1.1605,0.0311,9.8249,7.0000,0.9800,1.9600,999.0980,-1.4191,0.1550,9.7022,1590578865,S
0,1926858,-1.1605,0.2704,9.8871,7.2100,0.9100,3.7100,999.0964,-1.7396,0.1960,9.6491,1590578865,S
0,1927634,-1.1821,0.3206,9.7843,0.2800,-0.1400,3.9200,999.0951,-1.4797,0.2152,9.6920,1590578865,S
118,1929269,-1.1629,0.2991,9.8010,-3.3600,0.8400,-1.2600,999.0939,-1.2835,0.2055,9.7201,1590578865,S
118,1931242,-1.2491,0.0072,9.8800,-0.7700,0.8400,-0.8400,999.0931,-1.2365,0.2170,9.7260,1590578865,S
118,1931183,-1.0648,0.4235,9.7986,-2.3800,-1.8900,-0.7700,999.0924,-1.1518,0.1523,9.7376,1590578865,S
118,1926741,-1.0361,-0.3278,9.8249,3.2200,1.5400,-0.2800,999.0921,-1.2257,0.2366,9.7269,1590578865,S
118,1925224,-1.2491,0.2967,9.8201,6.6500,1.2600,2.5900,999.0931,-1.5891,0.1826,9.6753,1590578865,S
118,1924217,-1.1438,0.1172,9.8010,3.1500,-0.4900,4.2700,999.0943,-1.5160,0.2343,9.6859,1590578865,S
118,1924417,-1.2084,0.5097,9.8560,-0.1400,1.1200,0.5600,999.0959,-1.4528,0.2105,9.6962,1590578865,S
118,1923046,-1.2467,0.0742,9.7603,0.4900,-1.3300,0.3500,999.0973,-1.3378,0.2710,9.7112,1590578866,S
118,1917627,-1.1821,0.1555,9.7364,-2.1700,-0.7000,0.7000,999.0987,-1.2669,0.2125,9.7222,1590578866,S
118,1916855,-1.2849,0.4116,9.8297,-2.0300,-0.3500,-1.2600,999.0996,-1.1941,0.1819,9.7320,1590578866,S
118,1917669,-1.1892,0.3494,9.7795,1.8900,-0.4900,0.1400,999.1002,-1.2537,0.2422,9.7232,1590578866,S
118,1919413,-1.1797,0.1938,9.8225,-2.8000,-1.0500,0.2800,999.1005,-1.1627,0.2371,9.7346,1590578866,S
118,1920891,-1.2036,0.2943,9.7819,-0.3500,-1.0500,-0.2100,999.1006,-1.1471,0.2239,9.7368,1590578866,S
118,1917150,-1.1821,0.2201,9.8154,2.8000,0.7000,-0.0700,999.1003,-1.2252,0.2633,9.7262,1590578866,S
118,1917323,-1.2036,0.2847,9.8225,-0.6300,0.0700,-0.4900,999.0998,-1.2037,0.2484,9.7293,1590578866,S
118,1918726,-1.3113,0.2752,9.8297,1.2600,-1.3300,0.5600,999.0986,-1.2140,0.2655,9.7276,1590578866,S
118,1920292,-1.0169,0.2417,9.7651,8.8200,1.1900,2.3100,999.0972,-1.4170,0.3481,9.6975,1590578866,S
118,1921814,-1.2730,0.4881,9.7723,1.4000,0.7000,0.9800,999.0947,-1.3632,0.3409,9.7055,1590578867,S
118,1917295,-1.1677,0.1579,9.8010,5.4600,-0.7000,2.2400,999.0921,-1.4105,0.4178,9.6957,1590578867,S
118,1916384,-1.1509,0.4020,9.7819,-5.0400,-0.0700,-1.3300,999.0901,-1.2886,0.3195,9.7164,1590578867,S
119,1917604,-1.1964,0.3685,9.7627,0.4200,-1.3300,0.2100,999.0892,-1.2465,0.3380,9.7212,1590578867,S
118,1919542,-1.3424,0.3565,9.8513,1.1200,0.6300,-0.3500,999.0887,-1.2587,0.3543,9.7191,1590578867,S
118,1922329,-1.2132,0.3182,9.8058,-0.3500,-1.1200,0.9100,999.0880,-1.2531,0.3498,9.7200,1590578867,S
118,1920863,-1.2849,0.3541,9.8513,-2.0300,-0.2100,-0.8400,999.0878,-1.2092,0.3240,9.7264,1590578867,S
118,1919535,-1.2395,0.3135,9.8441,0.3500,0.1400,0.1400,999.0876,-1.2277,0.3324,9.7238,1590578867,S
118,1921287,-1.2084,0.2871,9.8536,0.4900,-0.1400,0.0700,999.0864,-1.2341,0.3321,9.7230,1590578867,S
118,1923177,-1.2443,0.3206,9.7890,1.7500,-0.1400,0.7000,999.0852,-1.2535,0.3384,9.7203,1590578867,S
118,1925664,-1.2012,0.4403,9.8321,-0.3500,0.1400,0.2800,999.0838,-1.2446,0.3316,9.7217,1590578868,S
118,1926615,-1.2251,0.4140,9.8417,-0.4200,-0.4200,-0.0700,999.0824,-1.2212,0.3480,9.7241,1590578868,S
118,1924173,-1.2682,0.4762,9.8273,-0.2800,-0.4200,0.0700,999.0809,-1.2105,0.3571,9.7251,1590578868,S
118,1925565,-1.2562,0.4020,9.7962,-1.7500,-0.2100,-0.3500,999.0792,-1.1933,0.3632,9.7270,1590578868,S
118,1927453,-1.2419,0.3326,9.8417,-0.5600,-0.2100,-0.2800,999.0782,-1.1947,0.3648,9.7268,1590578868,S
118,1929705,-1.2897,0.2871,9.8225,0.1400,0.1400,-0.2800,999.0765,-1.2046,0.3588,9.7258,1590578868,S
118,1931772,-1.1964,0.3996,9.8513,1.6100,-0.0700,0.2800,999.0764,-1.2418,0.3586,9.7211,1590578868,S
118,1928712,-1.2323,0.2680,9.8345,1.6100,-0.4200,0.4200,999.0773,-1.2486,0.3800,9.7194,1590578868,S
118,1928596,-1.2730,0.3254,9.7866,0.8400,-0.2100,0.7000,999.0789,-1.2543,0.3647,9.7193,1590578868,S
118,1930056,-1.2036,0.3996,9.8632,0.7700,0.1400,0.4200,999.0814,-1.2694,0.3638,9.7173,1590578868,S
118,1931952,-1.2802,0.4044,9.8082,0.7700,-0.5600,0.4200,999.0845,-1.2571,0.3763,9.7185,1590578869,S
118,1934433,-1.1366,0.5312,9.9159,0.6300,-0.1400,0.2100,999.0873,-1.2667,0.3867,9.7168,1590578869,S
118,1932191,-1.2706,0.4570,9.7938,0.0700,-0.0700,-0.0700,999.0893,-1.2320,0.4144,9.7201,1590578869,S
118,1931096,-1.2610,0.3900,9.8680,-0.7700,-0.7700,0.2800,999.0897,-1.2197,0.4142,9.7217,1590578869,S
118,1932497,-1.2371,0.3302,9.8058,0.8400,0.1400,0.1400,999.0900,-1.2367,0.4161,9.7195,1590578869,S
118,1934156,-1.2778,0.3900,9.8560,-1.3300,-0.3500,-0.3500,999.0905,-1.2144,0.3857,9.7235,1590578869,S
118,1936538,-1.2491,0.3302,9.8273,-0.2800,-0.3500,0.0700,999.0903,-1.2162,0.3825,9.7234,1590578869,S
118,1936129,-1.2802,0.3422,9.8465,0.3500,0.0700,0.0700,999.0905,-1.2257,0.3747,9.7225,1590578869,S
118,1934199,-1.2156,0.3350,9.8441,0.1400,-0.1400,0.4200,999.0901,-1.2332,0.3687,9.7218,1590578869,S
118,1935460,-1.2778,0.4642,9.7938,0.2100,-0.2100,0.3500,999.0900,-1.2275,0.3629,9.7227,1590578869,S
118,1936933,-1.2491,0.4618,9.8106,-0.0700,0.0700,0.2800,999.0898,-1.2351,0.3818,9.7211,1590578870,S
118,1939030,-1.2778,0.3852,9.8393,-1.0500,-0.1400,-0.2800,999.0897,-1.2203,0.3870,9.7227,1590578870,S
118,1940211,-1.2371,0.4594,9.7460,-0.4900,-0.3500,-0.2800,999.0890,-1.2190,0.3807,9.7231,1590578870,S
118,1937775,-1.2826,0.3254,9.8154,-1.4000,-0.4900,-0.0700,999.0883,-1.1990,0.3828,9.7255,1590578870,S
117,1938963,-1.2610,0.4475,9.8010,-0.2800,-0.5600,0.1400,999.0867,-1.2026,0.3675,9.7257,1590578870,S
118,1940743,-1.2826,0.3637,9.8106,2.3800,0.2100,0.0700,999.0858,-1.2478,0.4044,9.7185,1590578870,S
117,1942845,-1.2706,0.3757,9.8130,2.5200,0.5600,0.6300,999.0847,-1.2918,0.4194,9.7121,1590578870,S
117,1944775,-1.2538,0.4929,9.8130,1.3300,0.8400,0.3500,999.0834,-1.3112,0.4232,9.7094,1590578870,S
117,1941673,-1.3137,0.4810,9.8058,0.3500,0.0700,0.3500,999.0818,-1.3001,0.4396,9.7101,1590578870,S
117,1941659,-1.3184,0.4810,9.7795,-2.3100,-0.5600,-0.4900,999.0810,-1.2652,0.4249,9.7154,1590578870,S
117,1942757,-1.3041,0.4187,9.8010,-4.3400,-1.0500,-1.1900,999.0797,-1.2099,0.3940,9.7238,1590578871,S
117,1944295,-1.2491,0.3326,9.7914,-2.2400,-1.1200,-0.5600,999.0783,-1.1869,0.3760,9.7273,1590578871,S
117,1946387,-1.2419,0.2058,9.7914,0.5600,-0.0700,0.2800,999.0766,-1.2025,0.3719,9.7255,1590578871,S
117,1943061,-1.2538,0.3111,9.8178,2.1700,-0.2100,0.8400,999.0751,-1.2364,0.3577,9.7218,1590578871,S
117,1941545,-1.2682,0.4140,9.8106,2.6600,0.4200,0.9800,999.0738,-1.2809,0.3728,9.7155,1590578871,S
117,1942115,-1.2586,0.4140,9.7723,-0.4200,-0.2800,0.1400,999.0726,-1.2661,0.3761,9.7173,1590578871,S
117,1943031,-1.3113,0.3781,9.8895,0.5600,-0.2100,0.2800,999.0719,-1.2687,0.3881,9.7165,1590578871,S
117,1944730,-1.1988,0.3063,9.7771,0.0700,-0.1400,0.2800,999.0721,-1.2718,0.3854,9.7162,1590578871,S
117,1941846,-1.3208,0.4235,9.7962,0.2800,-0.2800,0.2800,999.0726,-1.2582,0.3715,9.7185,1590578871,S
117,1939222,-1.2897,0.4451,9.8249,0.2800,-0.0700,0.0700,999.0728,-1.2719,0.3835,9.7163,1590578871,S
117,1939715,-1.2634,0.4522,9.8728,-0.4200,-0.2100,-0.1400,999.0728,-1.2647,0.3905,9.7169,1590578872,S
117,1940422,-1.2778,0.4140,9.7699,-0.0700,-0.3500,0.1400,999.0726,-1.2557,0.4004,9.7177,1590578872,S
116,1941994,-1.3184,0.4140,9.8273,-1.1200,0.4200,0.1400,999.0736,-1.2466,0.3933,9.7191,1590578872,S
117,1940717,-1.4453,0.3446,9.7866,0.8400,-2.3800,2.4500,999.0756,-1.2431,0.4022,9.7192,1590578872,S
117,1937295,-1.2323,0.2728,9.8369,-1.7500,0.5600,0.9100,999.0771,-1.2566,0.3764,9.7185,1590578872,S
116,1937670,-1.4189,0.6437,9.8752,-5.7400,0.2800,-1.4000,999.0782,-1.1651,0.3025,9.7325,1590578872,S
116,1938300,-1.2084,0.2393,9.8321,-2.4500,-1.8200,-0.1400,999.0790,-1.1740,0.3420,9.7301,1590578872,S
116,1939881,-1.2203,0.2584,9.8178,-3.7800,-0.2800,-1.1900,999.0801,-1.1157,0.2850,9.7388,1590578872,S
116,1940279,-1.2275,0.3206,9.7890,1.5400,0.2100,-0.4900,999.0811,-1.1569,0.2928,9.7338,1590578872,S
116,1936019,-1.2921,0.3087,9.7388,0.9800,-0.8400,1.1200,999.0821,-1.1752,0.3064,9.7312,1590578872,S
116,1935264,-1.8497,1.0528,9.7938,-19.7400,-9.5200,9.8700,999.0827,-0.7741,0.1221,9.7753,1590578873,S
116,1933371,-0.2034,-2.3689,10.3107,-22.8200,11.5500,23.5900,999.0839,-2.9604,0.5108,9.3352,1590578873,S
116,1932546,-0.5456,-1.7396,8.7960,-78.6100,-0.2800,45.7100,999.0845,-5.7608,-0.1033,7.9355,1590578873,S
116,1939078,-4.4650,-9.6239,7.8676,-286.8600,-62.0200,39.3400,999.0856,-4.7050,-2.3968,8.2637,1590578873,S
116,1957941,3.9936,-9.7603,1.6439,-243.6000,39.4800,-104.7200,999.0855,-4.8233,-4.7026,7.1268,1590578873,S
116,1951796,0.5623,-8.5519,6.6018,-152.4600,252.9100,-201.5300,999.0851,-3.8224,-7.4504,5.1040,1590578873,S
116,1948499,-2.7829,-10.5858,0.0861,-238.0700,295.3300,-155.5400,999.0854,-2.3621,-9.4615,1.0349,1590578873,S
116,1941360,0.0718,-9.9326,-2.1942,-198.3800,191.3100,-64.6800,999.0865,0.2043,-9.6527,-1.7186,1590578873,S
116,1931889,0.4379,-9.2794,-2.7852,-112.4900,105.1400,-15.6800,999.0880,3.0697,-9.0523,-2.1917,1590578873,S
116,1917443,-0.3398,-8.9252,-3.4074,-38.5700,84.2800,29.0500,999.0900,-3.8693,-8.5025,-2.9843,1590578873,S
116,1909439,0.5695,-8.7242,-4.3837,26.2500,66.9200,25.0600,999.0934,-2.7213,-8.8927,-3.1120,1590578874,S
116,1906040,2.9456,-8.6955,-3.6036,-21.0000,28.5600,24.1500,999.0977,-2.1608,-8.8648,-3.5940,1590578874,S
116,1903849,3.1896,-9.1549,-2.9001,-1.5400,42.7700,2.8000,999.1030,-1.0441,-9.0822,-3.5489,1590578874,S
116,1904242,3.4887,-9.4947,-2.2181,13.7900,34.7200,-18.9000,999.1085,-0.2945,-6.2659,-7.5380,1590578874,S
116,1902500,3.5414,-8.1141,-1.8018,-1.2600,29.0500,-19.5300,999.1138,0.8404,-8.6631,-4.5182,1590578874,S
116,1900316,3.8261,-8.9635,-2.5340,-20.0900,8.1200,-12.5300,999.1193,1.5497,-8.8414,-3.9495,1590578874,S
115,1901046,5.8720,-8.9180,-3.0700,-24.5000,4.3400,-19.0400,999.1241,2.1522,-8.7311,-3.9123,1590578874,S
115,1902354,4.5631,-7.9155,-2.1846,17.5000,12.0400,-10.6400,999.1274,2.5564,-8.7314,-3.6605,1590578874,S
115,1905147,5.7045,-7.7312,-2.1990,27.8600,9.5200,-8.8900,999.1301,2.9757,-8.7879,-3.1763,1590578874,S
115,1906967,5.2546,-7.8939,-1.6319,3.5000,6.0200,-1.7500,999.1323,3.4612,-8.6742,-2.9915,1590578874,S
115,1905167,5.3025,-8.2361,-1.3759,1.8900,2.3100,-0.0700,999.1346,3.7835,-8.6281,-2.7225,1590578875,S
115,1906840,5.5968,-8.0806,-1.4357,8.8200,-0.7700,-10.6400,999.1363,4.0680,-8.5895,-2.4172,1590578875,S
115,1909236,5.4341,-8.0877,-1.6343,15.5400,-0.8400,-12.2500,999.1373,4.3127,-8.5439,-2.1383,1590578875,S
115,1912189,6.0251,-7.0804,-1.5362,2.2400,-6.5800,-6.0900,999.1381,4.4993,-8.4675,-2.0563,1590578875,S
115,1915008,5.6375,-7.0828,-1.6941,2.4500,10.5700,9.8000,999.1398,4.7585,-8.3554,-1.9274,1590578875,S
115,1909049,5.5705,-9.7268,-0.1675,38.9900,18.6200,27.5100,999.1420,4.5621,-8.5415,-1.5491,1590578875,S
115,1912466,3.4193,-10.3825,-3.4648,-118.0900,2.5900,49.9100,999.1434,5.1394,-8.0559,-2.2043,1590578875,S
115,1915590,6.5515,-8.3438,0.1651,42.2800,12.1800,-30.1000,999.1436,4.8628,-8.2776,-2.0014,1590578875,S
115,1920193,3.3021,-3.7519,2.5555,62.6500,-75.0400,51.8000,999.1445,3.7329,-8.9782,-1.2762,1590578875,S
115,1926911,1.1988,-11.7200,1.5649,86.9400,-79.7300,78.3300,999.1451,1.6742,-9.6617,0.1385,1590578875,S
115,1931352,1.8473,-10.3585,2.0506,80.3600,-99.3300,70.9800,999.1463,0.0903,-9.7427,1.1145,1590578876,S
115,1926012,-1.0217,-10.6265,0.9978,118.9300,-115.9900,77.9100,999.1467,-1.5727,-9.4191,2.2311,1590578876,S
115,1922936,-0.6652,-9.1167,1.8042,135.9400,-147.0700,75.4600,999.1462,-4.4818,-4.8156,7.2728,1590578876,S
115,1921108,-1.0313,-9.6981,4.3310,180.2500,-129.7800,68.5300,999.1453,-4.1830,-3.0864,8.3155,1590578876,S
115,1922474,2.3402,-7.7073,8.1165,141.5400,-43.0500,76.0200,999.1444,-4.6401,-1.3514,8.5331,1590578876,S
115,1926416,2.1129,-7.7360,7.1545,143.4300,22.3300,77.0700,999.1437,-4.9190,1.4790,8.3539,1590578876,S
115,1929072,0.5886,-5.0584,7.9155,110.1800,20.0200,96.6700,999.1423,-5.5027,3.1889,7.4647,1590578876,S
115,1926594,0.5767,-3.0891,7.4106,47.3200,-35.6300,95.9000,999.1398,-5.6601,4.0436,6.9125,1590578876,S
115,1926769,0.6006,-3.2590,3.5797,-77.0000,-255.8500,88.5500,999.1364,-5.4550,1.8306,7.9412,1590578876,S
115,1928848,4.1539,9.7220,8.7673,-54.4600,-28.9100,-51.0300,999.1328,-6.1950,1.5363,7.4452,1590578876,S
115,1934954,6.1807,-6.0347,4.5392,-28.4200,50.5400,16.6600,999.1291,-6.3851,3.1490,6.7442,1590578877,S
115,1936028,2.0267,-0.7059,13.0696,24.2900,82.2500,-14.8400,999.1266,6.6704,2.1962,6.8450,1590578877,S
115,1935606,1.6869,-1.9621,9.7292,-135.9400,6.3700,20.4400,999.1235,6.4308,0.4800,7.3881,1590578877,S
115,1932084,2.0865,-6.0036,5.5537,-129.5000,26.8800,68.6700,999.1214,2.9931,-8.2455,4.3845,1590578877,S
115,1927969,-0.6389,-6.8195,6.8674,-88.3400,28.0000,76.8600,999.1180,4.4217,-3.4225,8.0564,1590578877,S
115,1926536,-0.7250,-9.2076,5.6638,-14.6300,11.6200,31.5700,999.1147,3.1920,-3.6417,8.5276,1590578877,S
115,1926881,-0.4642,-8.3581,5.0177,-52.3600,-0.6300,11.4100,999.1125,2.5041,-4.7263,8.2196,1590578877,S
115,1927305,-0.2704,-9.8513,3.7424,-88.8300,-0.6300,7.9800,999.1124,1.5647,-6.0921,7.5239,1590578877,S
114,1922833,-0.4403,-9.8010,2.9121,-26.0400,-2.1700,2.7300,999.1126,1.0676,-6.5475,7.2223,1590578877,S
114,1920558,-0.6437,-9.5498,2.7637,-13.1600,-3.9200,3.1500,999.1132,0.6764,-6.7557,7.0763,1590578877,S
114,1919922,-0.4905,-9.0090,2.9049,7.3500,3.9900,8.2600,999.1143,0.3082,-6.4694,7.3635,1590578878,S
114,1920226,-0.7729,-9.1286,2.9169,-18.2700,2.8000,11.0600,999.1165,0.0065,-6.6309,7.2251,1590578878,S
114,1920030,-0.7394,-9.0114,3.3188,12.1100,5.1800,8.6800,999.1190,-0.3365,-7.1121,6.7436,1590578878,S
114,1916065,-0.9667,-9.3512,2.8786,-0.6300,-0.6300,-2.1000,999.1215,-0.4871,-7.7898,5.9373,1590578878,S
114,1910953,-0.7633,-9.4158,2.6608,-1.5400,-0.5600,-1.7500,999.1234,-0.6396,-8.5557,4.7499,1590578878,S
114,1907389,-0.8590,-9.2794,2.8977,-0.4200,-0.3500,-1.1900,999.1255,-0.6810,-8.8960,4.0703,1590578878,S
114,1905590,-0.7585,-9.3847,2.7254,-0.3500,-0.2100,-1.2600,999.1282,-0.7151,-9.0594,3.6860,1590578878,S
113,1904788,-0.8160,-9.3488,2.7972,-0.8400,0.0700,1.1200,999.1312,-0.7371,-9.1509,3.4479,1590578878,S
114,1903429,-0.8734,-9.3296,2.8546,-0.6300,-0.3500,0.2800,999.1334,-0.7565,-9.2095,3.2838,1590578878,S
113,1899047,-0.8566,-9.3966,2.7757,-0.4200,-0.3500,-0.4200,999.1362,-0.7765,-9.2487,3.1668,1590578878,S
113,1897618,-0.7896,-9.2578,2.8881,-0.5600,-0.2100,-0.0700,999.1393,-0.7915,-9.2809,3.0674,1590578879,S
113,1897843,-0.7848,-9.2387,2.8762,0.4200,-0.4200,-0.7700,999.1417,-0.7858,-9.2947,3.0268,1590578879,S
113,1898661,-0.7753,-9.3248,2.8427,0.5600,-0.3500,-0.1400,999.1438,-0.7861,-9.3017,3.0052,1590578879,S
113,1900216,-0.8064,-9.3416,2.8810,0.1400,-0.2100,0.0700,999.1467,-0.7848,-9.3111,2.9762,1590578879,S
113,1897278,-0.7872,-9.3129,2.8881,0.4900,-0.1400,0.2800,999.1505,-0.7917,-9.3141,2.9649,1590578879,S
113,1895167,-0.7944,-9.2602,2.8738,0.4200,-0.2100,-0.1400,999.1530,-0.7902,-9.3180,2.9532,1590578879,S
113,1895409,-0.8088,-9.4349,2.7302,-1.5400,-0.2100,0.5600,999.1556,-0.7950,-9.3225,2.9375,1590578879,S
113,1896522,-0.7753,-9.2172,2.9384,0.5600,-0.2100,0.1400,999.1577,-0.7987,-9.3341,2.8995,1590578879,S
113,1898172,-0.7777,-9.3607,2.8379,-0.7000,-0.3500,-0.4200,999.1596,-0.7909,-9.3336,2.9031,1590578879,S
113,1897516,-0.7322,-9.2818,2.8044,-0.7000,-0.1400,0.2800,999.1609,-0.7896,-9.3383,2.8883,1590578879,S
112,1894993,-0.7825,-9.2913,2.9216,0.3500,-0.4200,-0.6300,999.1610,-0.7738,-9.3445,2.8725,1590578880,S
113,1895150,-0.6891,-9.2818,2.9097,-0.6300,-0.2800,-0.0700,999.1619,-0.7745,-9.3424,2.8794,1590578880,S
112,1896485,-0.6867,-9.2698,2.8762,2.7300,-0.2100,-0.0700,999.1628,-0.7601,-9.3333,2.9125,1590578880,S
112,1898807,-0.8351,-9.3416,2.9145,1.2600,-0.1400,0.0700,999.1637,-0.7481,-9.3311,2.9227,1590578880,S
112,1899923,-0.7418,-9.3224,2.8762,2.7300,-0.2100,-0.0700,999.1647,-0.7671,-9.3228,2.9439,1590578880,S
112,1900487,-0.7753,-9.1765,3.1513,8.7500,0.6300,0.9100,999.1654,-0.7798,-9.2981,3.0178,1590578880,S
112,1904924,-0.7585,-9.3894,2.7924,-2.8700,-0.3500,-0.7000,999.1663,-0.7710,-9.2997,3.0152,1590578880,S
112,1907216,-0.8207,-9.1837,3.1346,0.9800,-0.1400,-0.5600,999.1673,-0.7646,-9.3147,2.9701,1590578880,S
112,1908441,-0.8327,-9.2243,3.1633,-0.3500,-0.0700,-0.1400,999.1675,-0.7754,-9.3033,3.0029,1590578880,S
112,1909406,-0.8040,-9.2698,3.0820,-2.1000,-0.3500,0.0700,999.1666,-0.7851,-9.2965,3.0213,1590578880,S
112,1906352,-0.7011,-9.1956,3.0987,0.9100,-0.2100,-0.1400,999.1643,-0.7884,-9.2900,3.0407,1590578881,S
112,1904856,-0.9188,-9.2387,3.1274,-0.4200,-0.3500,-0.5600,999.1625,-0.7665,-9.2899,3.0463,1590578881,S
112,1903136,-0.7585,-9.1860,3.2231,1.7500,-0.3500,0.3500,999.1608,-0.8011,-9.2737,3.0866,1590578881,S
112,1903487,-0.7944,-9.1908,3.3045,0.7000,0.2100,0.3500,999.1598,-0.7973,-9.2608,3.1262,1590578881,S
111,1904511,-0.7466,-9.3105,3.1274,-1.5400,-0.2100,-0.2100,999.1594,-0.7935,-9.2542,3.1467,1590578881,S
112,1900073,-0.7585,-9.2315,3.2255,1.1200,-0.2800,-0.2800,999.1587,-0.7817,-9.2550,3.1471,1590578881,S
112,1895820,-0.7729,-9.2172,3.1298,1.2600,-0.1400,0.1400,999.1588,-0.7792,-9.2453,3.1762,1590578881,S
112,1894564,-0.7346,-9.2100,3.1537,-0.7000,-0.3500,-0.4200,999.1591,-0.7739,-9.2516,3.1591,1590578881,S
112,1894343,-0.7370,-9.2387,3.1801,-0.8400,-0.2800,-0.0700,999.1592,-0.7648,-9.2540,3.1541,1590578881,S
112,1895170,-0.6963,-9.0879,3.1896,-0.8400,-0.2800,-0.3500,999.1589,-0.7553,-9.2567,3.1486,1590578881,S
112,1893931,-0.7466,-9.2315,3.1872,-0.1400,-0.2800,-0.1400,999.1583,-0.7440,-9.2522,3.1645,1590578882,S
112,1890903,-0.8112,-9.2315,3.2064,1.0500,-0.2800,0.7000,999.1575,-0.7509,-9.2422,3.1919,1590578882,S
112,1891117,-0.7274,-9.2650,3.1155,1.0500,-0.3500,-0.0700,999.1558,-0.7627,-9.2367,3.2049,1590578882,S
112,1891725,-0.7681,-9.2363,3.1801,0.2800,-0.3500,-0.1400,999.1547,-0.7542,-9.2427,3.1897,1590578882,S
112,1892455,-0.7226,-9.2626,3.1609,-0.3500,-0.3500,-0.4900,999.1545,-0.7522,-9.2464,3.1794,1590578882,S
112,1892512,-0.7274,-9.3009,3.1633,0.2800,-0.2800,0.2800,999.1539,-0.7482,-9.2452,3.1840,1590578882,S
112,1888382,-0.7250,-9.2148,3.2040,2.0300,-0.2100,0.1400,999.1536,-0.7460,-9.2405,3.1980,1590578882,S
112,1887146,-0.7442,-9.2794,3.1801,0.1400,0.0700,0.7700,999.1539,-0.7486,-9.2347,3.2142,1590578882,S
112,1887575,-0.7298,-9.1454,3.2710,1.6100,-0.4200,-0.2800,999.1550,-0.7457,-9.2339,3.2171,1590578882,S
112,1888728,-0.7561,-9.2028,3.1729,-1.1900,-0.0700,0.7000,999.1559,-0.7481,-9.2278,3.2341,1590578882,S
112,1890418,-0.7394,-9.1358,3.2471,0.2800,-0.1400,0.2100,999.1574,-0.7521,-9.2284,3.2312,1590578883,S
112,1889007,-0.6963,-9.2483,3.1346,1.1900,-0.5600,-0.2800,999.1576,-0.7486,-9.2225,3.2490,1590578883,S
112,1890652,-0.7729,-9.2818,3.1370,2.5200,-0.2800,0.0700,999.1581,-0.7406,-9.2221,3.2520,1590578883,S
111,1893410,-0.7633,-9.1190,3.3476,0.6300,0.1400,-0.1400,999.1590,-0.7465,-9.2295,3.2295,1590578883,S
112,1896053,-0.8040,-9.2243,3.1561,-3.8500,0.1400,0.7700,999.1608,-0.7541,-9.2265,3.2362,1590578883,S
111,1898595,-0.8327,-9.1980,3.2542,1.2600,-0.3500,-0.4200,999.1620,-0.7616,-9.2290,3.2274,1590578883,S
111,1898342,-0.7107,-9.2674,3.0126,-2.5900,-0.1400,0.7700,999.1633,-0.7797,-9.2284,3.2247,1590578883,S
111,1895954,-0.7633,-9.2124,3.1729,2.0300,-0.4900,-0.6300,999.1644,-0.7623,-9.2401,3.1953,1590578883,S
111,1896207,-0.7657,-9.1525,3.2064,-1.2600,-0.4900,-0.6300,999.1651,-0.7559,-9.2476,3.1749,1590578883,S
111,1896784,-0.7657,-9.2195,3.1298,-2.1700,-0.4900,-0.7700,999.1649,-0.7500,-9.2538,3.1583,1590578883,S
111,1897931,-0.7585,-9.1430,3.2255,-0.9100,-0.4200,-0.4200,999.1643,-0.7488,-9.2591,3.1430,1590578884,S
111,1899669,-0.7609,-9.2267,3.1131,-1.9600,0.0700,0.9800,999.1633,-0.7585,-9.2514,3.1635,1590578884,S
111,1897546,-0.7394,-9.3033,3.1537,1.6800,-0.4200,-0.3500,999.1626,-0.7575,-9.2502,3.1671,1590578884,S
111,1895288,-0.6078,-9.2363,3.0748,-1.3300,-0.4900,-0.3500,999.1619,-0.7483,-9.2576,3.1474,1590578884,S
112,1895461,-0.7035,-9.2770,3.0700,0.2800,-0.4900,0.4200,999.1608,-0.7236,-9.2588,3.1497,1590578884,S
111,1895910,-0.6987,-9.2219,3.1394,1.0500,-0.3500,-0.2800,999.1593,-0.7177,-9.2623,3.1408,1590578884,S
111,1897116,-0.7394,-9.2195,3.1657,-0.1400,-0.3500,0.5600,999.1578,-0.7184,-9.2579,3.1536,1590578884,S
112,1897945,-0.7322,-9.2650,3.1681,0.6300,-0.1400,0.2100,999.1557,-0.7251,-9.2526,3.1678,1590578884,S
111,1894366,-0.7131,-9.2698,3.2016,7.1400,0.4900,0.9800,999.1541,-0.7413,-9.2257,3.2416,1590578884,S
112,1893330,-0.7394,-9.2052,3.2758,1.6800,0.7700,1.5400,999.1543,-0.7505,-9.2159,3.2672,1590578884,S
111,1893675,-0.6843,-9.1358,3.3547,0.5600,-0.2100,-0.2800,999.1528,-0.7463,-9.2149,3.2709,1590578885,S
111,1894177,-0.7298,-9.2339,3.2662,-0.0700,-0.2100,0.7000,999.1519,-0.7399,-9.2038,3.3033,1590578885,S
112,1898151,-0.6437,-9.1047,3.2949,1.1900,-0.4900,-0.9100,999.1517,-0.7304,-9.2084,3.2928,1590578885,S
111,1899998,-0.7226,-9.0066,3.4433,-2.1700,-0.1400,0.2100,999.1508,-0.7141,-9.2121,3.2861,1590578885,S
111,1899260,-0.7896,-9.3775,3.2375,-1.9600,-0.2100,0.1400,999.1508,-0.7172,-9.2017,3.3143,1590578885,S
111,1900371,-0.7131,-9.1549,3.3260,-1.1200,-0.5600,-0.6300,999.1517,-0.7225,-9.2165,3.2718,1590578885,S
111,1902865,-0.7035,-9.2267,3.2518,-0.2800,0.1400,0.7700,999.1519,-0.7275,-9.2077,3.2953,1590578885,S
111,1906204,-0.7801,-9.3799,3.1178,-3.5000,-0.7700,-0.5600,999.1522,-0.7139,-9.2242,3.2520,1590578885,S
111,1909629,-0.6676,-9.1549,3.1466,-4.6200,-0.7700,1.2600,999.1522,-0.7307,-9.2398,3.2036,1590578885,S
111,1910368,-0.7777,-9.1214,3.1825,-7.4200,-0.9100,-0.5600,999.1528,-0.7073,-9.2661,3.1319,1590578885,S
111,1909426,-0.6006,-9.5258,2.5340,-12.3900,-1.2600,-0.3500,999.1534,-0.7076,-9.2952,3.0446,1590578886,S
111,1907998,-0.7107,-9.4205,2.7087,-6.6500,-0.7000,0.5600,999.1539,-0.6840,-9.3448,2.8944,1590578886,S
111,1907927,-0.6843,-9.3368,2.7781,-2.9400,-0.7000,-0.5600,999.1541,-0.6809,-9.3672,2.8218,1590578886,S
111,1908818,-0.6532,-9.3631,2.7470,4.2000,0.2800,2.1000,999.1546,-0.7038,-9.3463,2.8847,1590578886,S
111,1909392,-0.7537,-9.3751,2.7613,6.0900,0.2100,0.2800,999.1552,-0.7023,-9.3370,2.9150,1590578886,S
111,1905465,-0.6748,-9.3440,2.9145,2.3800,-0.1400,-0.9100,999.1561,-0.7073,-9.3446,2.8893,1590578886,S
110,1902186,-0.7083,-9.3703,2.7613,-2.5900,-0.1400,0.4900,999.1566,-0.7022,-9.3477,2.8804,1590578886,S
111,1901159,-0.7370,-9.3296,2.9815,1.0500,-0.2800,-0.4200,999.1571,-0.7008,-9.3540,2.8606,1590578886,S
110,1901392,-0.7370,-9.3224,2.9192,-0.7000,-0.1400,0.7700,999.1577,-0.7133,-9.3436,2.8911,1590578886,S
110,1904750,-0.6939,-9.3535,2.6871,0.0700,-0.0700,0.0700,999.1577,-0.7187,-9.3406,2.8994,1590578886,S
110,1905856,-0.6580,-9.3344,2.9432,7.5600,0.2800,-0.2800,999.1583,-0.7201,-9.3345,2.9189,1590578887,S
110,1901823,-0.7609,-9.3823,2.8427,-1.4000,0.2800,0.9800,999.1578,-0.7149,-9.3328,2.9255,1590578887,S
110,1899630,-0.6891,-9.2961,2.8475,0.1400,-0.4200,-0.5600,999.1578,-0.7186,-9.3400,2.9016,1590578887,S
110,1898783,-0.6843,-9.2291,2.8762,-2.2400,-0.1400,1.0500,999.1586,-0.7199,-9.3427,2.8924,1590578887,S
110,1898693,-0.7059,-9.3607,2.7709,1.0500,-0.2800,0.0700,999.1591,-0.7156,-9.3382,2.9078,1590578887,S
110,1899422,-0.6556,-9.3751,2.8187,2.3800,-0.4200,-0.7000,999.1587,-0.7098,-9.3433,2.8929,1590578887,S
110,1897549,-0.7035,-9.3894,2.7541,14.4200,1.6800,0.0700,999.1581,-0.7159,-9.3105,2.9953,1590578887,S
110,1892687,-0.6054,-9.3248,3.0556,1.2600,0.0700,-0.8400,999.1583,-0.7079,-9.3275,2.9439,1590578887,S
110,1891248,-0.6987,-9.1980,3.1705,-0.1400,0.1400,0.7700,999.1586,-0.6936,-9.3193,2.9731,1590578887,S
110,1892546,-0.5432,-9.4134,3.1322,8.4000,1.4700,2.0300,999.1589,-0.7224,-9.2714,3.1130,1590578887,S
109,1892854,-0.5838,-8.9994,3.7376,9.5900,2.3800,1.0500,999.1592,-0.7057,-9.2449,3.1944,1590578888,S
109,1893483,-0.7537,-9.2315,3.5055,4.2000,0.5600,0.3500,999.1590,-0.6910,-9.1963,3.3347,1590578888,S
109,1893910,-0.6867,-9.2578,3.4720,1.8900,0.5600,0.1400,999.1588,-0.7058,-9.1796,3.3773,1590578888,S
109,1893514,-0.6843,-9.2172,3.2973,-3.7800,-0.4200,-0.0700,999.1584,-0.6962,-9.1877,3.3575,1590578888,S
109,1891384,-0.6748,-9.0664,3.5916,-9.0300,-0.4200,0.0700,999.1583,-0.6865,-9.2192,3.2718,1590578888,S
109,1888843,-0.6843,-9.3918,3.3428,-12.0400,-0.0700,2.8700,999.1582,-0.6990,-9.2130,3.2868,1590578888,S
109,1892243,-0.7059,-9.2124,3.0820,-2.0300,-0.3500,-0.3500,999.1579,-0.6885,-9.2217,3.2644,1590578888,S
109,1893728,-0.6437,-9.0832,3.2040,-12.0400,-1.2600,-0.5600,999.1581,-0.6770,-9.2705,3.1256,1590578888,S
109,1888362,-0.7155,-9.3392,2.9001,-0.8400,-0.1400,0.2800,999.1586,-0.6739,-9.2623,3.1506,1590578888,S
109,1885691,-0.6461,-9.3153,3.0006,-0.2800,-0.2100,-0.2800,999.1590,-0.6798,-9.2820,3.0908,1590578888,S
109,1887107,-0.8590,-9.5282,2.6680,10.5700,0.2800,0.4200,999.1589,-0.6855,-9.2550,3.1695,1590578889,S
109,1885392,-0.7011,-9.2746,2.9767,0.7000,-0.6300,-0.8400,999.1586,-0.7134,-9.2938,3.0474,1590578889,S
109,1886300,-0.6987,-9.1980,3.1131,-3.2900,0.2100,1.4700,999.1592,-0.7210,-9.2988,3.0304,1590578889,S
109,1891326,-0.6700,-9.1406,3.1178,0.9800,-0.3500,-0.4200,999.1597,-0.7145,-9.2912,3.0550,1590578889,S
109,1889791,-0.7131,-9.1693,3.0030,-3.0800,-0.3500,-0.1400,999.1600,-0.7030,-9.2942,3.0486,1590578889,S
108,1888925,-0.7059,-9.3344,2.8953,0.7700,-0.4200,-0.6300,999.1600,-0.7018,-9.2951,3.0461,1590578889,S
108,1889281,-0.6413,-9.2387,3.0269,10.0800,0.2800,-0.4200,999.1594,-0.7089,-9.2786,3.0944,1590578889,S
108,1891435,-0.7059,-9.1549,3.1274,-0.6300,-0.8400,-0.7000,999.1599,-0.6883,-9.2875,3.0722,1590578889,S
108,1893609,-0.6748,-9.1908,3.1920,-8.6100,-0.4200,0.7000,999.1596,-0.6910,-9.3011,3.0303,1590578889,S
108,1892016,-0.6532,-9.2818,3.0197,-2.1700,-0.4200,-0.6300,999.1594,-0.6810,-9.2991,3.0387,1590578889,S
108,1890088,-0.7226,-9.3177,3.0293,-1.3300,-0.2800,-0.6300,999.1594,-0.6690,-9.3075,3.0156,1590578890,S
108,1890130,-0.7226,-9.2937,2.9934,1.9600,-0.1400,-0.6300,999.1595,-0.6757,-9.3042,3.0241,1590578890,S
108,1890359,-0.7035,-9.3033,2.9480,2.1700,-0.2800,0.4900,999.1589,-0.6908,-9.2954,3.0478,1590578890,S
108,1890464,-0.6796,-9.2770,2.8762,-2.9400,-0.4900,0.2800,999.1578,-0.6927,-9.3072,3.0112,1590578890,S
108,1889829,-0.6891,-9.2387,2.9695,-1.1900,-0.3500,-0.4200,999.1572,-0.6860,-9.3200,2.9728,1590578890,S
108,1887625,-0.7035,-9.2746,2.9767,0.9800,-0.0700,0.4900,999.1564,-0.6925,-9.3127,2.9941,1590578890,S
107,1888403,-0.7250,-9.2483,2.9264,0.0700,0.0700,0.8400,999.1558,-0.7024,-9.3077,3.0074,1590578890,S
107,1890760,-0.7011,-9.3248,2.9192,0.8400,-0.2800,-0.1400,999.1554,-0.7073,-9.3090,3.0022,1590578890,S
107,1892361,-0.6724,-9.2530,2.9073,0.8400,-0.3500,0.1400,999.1545,-0.7076,-9.3104,2.9977,1590578890,S
107,1894437,-0.6963,-9.2985,2.9456,-1.9600,-0.2800,0.4200,999.1539,-0.7030,-9.3176,2.9765,1590578890,S
107,1893496,-0.7322,-9.2913,2.9216,-0.6300,-0.2800,0.1400,999.1531,-0.7022,-9.3195,2.9704,1590578891,S
107,1891521,-0.7059,-9.2865,2.9886,0.8400,-0.4200,0.1400,999.1521,-0.7101,-9.3176,2.9747,1590578891,S
107,1890871,-0.7131,-9.2961,2.9791,-0.0700,-0.2100,0.1400,999.1514,-0.7104,-9.3152,2.9820,1590578891,S
107,1890470,-0.7226,-9.3296,2.9958,-2.7300,-0.6300,-0.2800,999.1510,-0.7054,-9.3233,2.9578,1590578891,S
107,1891225,-0.6604,-9.3081,2.7470,-4.7600,-0.7700,-0.1400,999.1499,-0.7018,-9.3339,2.9251,1590578891,S
107,1893655,-0.6485,-9.3416,2.8211,-0.3500,-0.2800,-0.1400,999.1495,-0.6928,-9.3455,2.8901,1590578891,S
107,1891686,-0.7202,-9.3033,2.8738,1.6100,-0.2800,0.4900,999.1486,-0.6894,-9.3421,2.9019,1590578891,S
107,1890472,-0.7083,-9.2387,2.9145,1.0500,-0.2800,0.4200,999.1474,-0.7002,-9.3368,2.9162,1590578891,S
107,1890639,-0.6891,-9.3368,2.8642,-0.2800,-0.1400,0.5600,999.1459,-0.7073,-9.3323,2.9290,1590578891,S
107,1891726,-0.6843,-9.3033,2.9240,0.2800,-0.2100,0.2100,999.1458,-0.7056,-9.3340,2.9240,1590578891,S
107,1894059,-0.5599,-9.1286,3.1418,8.8200,0.1400,-0.8400,999.1463,-0.7032,-9.3140,2.9877,1590578892,S
107,1896079,-0.6652,-9.2794,3.0245,2.0300,0.0700,1.5400,999.1467,-0.6911,-9.2887,3.0682,1590578892,S
107,1893995,-0.6700,-9.3105,3.0413,-0.4200,-0.3500,1.5400,999.1478,-0.6980,-9.2822,3.0861,1590578892,S
107,1893259,-0.6700,-9.2626,3.0628,0.4200,-0.0700,0.4200,999.1490,-0.6959,-9.2818,3.0879,1590578892,S
107,1893581,-0.7035,-9.2363,3.0221,0.5600,-0.2100,0.3500,999.1494,-0.6941,-9.2789,3.0969,1590578892,S
107,1894776,-0.6796,-9.1645,3.2040,4.2000,-0.2100,0.3500,999.1492,-0.7030,-9.2674,3.1292,1590578892,S
107,1896752,-0.6413,-9.2291,3.0317,-7.2100,-0.7000,0.2800,999.1495,-0.6945,-9.2791,3.0961,1590578892,S
107,1895412,-0.6461,-9.2554,3.0030,-1.8200,-0.2100,0.9800,999.1498,-0.6910,-9.2811,3.0909,1590578892,S
107,1891841,-0.6269,-9.2913,2.9599,-0.7700,-0.3500,0.1400,999.1495,-0.6827,-9.2870,3.0750,1590578892,S
107,1890587,-0.6796,-9.3248,2.8475,1.4700,-0.0700,0.2100,999.1508,-0.6748,-9.2888,3.0714,1590578892,S
107,1891011,-0.6939,-9.1717,3.2064,2.2400,-0.1400,0.2100,999.1519,-0.6799,-9.2951,3.0512,1590578893,S
107,1890872,-0.6724,-9.2913,3.0556,0.0700,-0.2800,-0.2100,999.1530,-0.6816,-9.2837,3.0853,1590578893,S
107,1892048,-0.7466,-9.2339,3.0532,-0.4200,-0.2100,0.2800,999.1535,-0.6814,-9.2848,3.0821,1590578893,S
106,1890646,-0.6532,-9.2195,3.0485,0.0700,-0.3500,-0.0700,999.1540,-0.6941,-9.2842,3.0809,1590578893,S
106,1889395,-0.6987,-9.2507,3.0987,0.0700,-0.2800,0.2800,999.1550,-0.6888,-9.2828,3.0864,1590578893,S
106,1890379,-0.6461,-9.2339,3.0843,-0.3500,-0.3500,-0.0700,999.1553,-0.6897,-9.2820,3.0885,1590578893,S
106,1892852,-0.7059,-9.2483,3.0532,0.0700,-0.1400,0.2800,999.1553,-0.6838,-9.2795,3.0973,1590578893,S
106,1894571,-0.6341,-9.2387,3.0437,0.8400,-0.3500,0.2800,999.1553,-0.6912,-9.2763,3.1053,1590578893,S
106,1896162,-0.7059,-9.3129,3.0078,-0.7700,-0.2100,0.3500,999.1540,-0.6824,-9.2795,3.0978,1590578893,S
106,1895172,-0.6556,-9.2746,3.0652,0.2100,-0.4900,-0.4200,999.1533,-0.6830,-9.2865,3.0765,1590578893,S
106,1894137,-0.6461,-9.1908,3.0269,-0.4900,-0.2800,0.1400,999.1527,-0.6781,-9.2872,3.0754,1590578894,S
106,1895034,-0.6389,-9.2459,3.0389,1.2600,-0.2100,0.2100,999.1520,-0.6755,-9.2831,3.0885,1590578894,S
106,1895930,-0.6485,-9.2602,3.1131,0.2800,-0.4200,-0.1400,999.1516,-0.6673,-9.2850,3.0846,1590578894,S
106,1897090,-0.6676,-9.2602,3.0389,0.9100,-0.1400,0.4900,999.1518,-0.6683,-9.2768,3.1089,1590578894,S
106,1898488,-0.6724,-9.2315,3.0676,0.7700,-0.4200,-0.3500,999.1515,-0.6657,-9.2799,3.1001,1590578894,S
106,1896153,-0.7202,-9.2339,3.0796,0.8400,0.3500,1.3300,999.1508,-0.6800,-9.2702,3.1259,1590578894,S
106,1894136,-0.7274,-9.2219,3.1753,1.4700,-0.1400,-0.2100,999.1498,-0.6880,-9.2685,3.1291,1590578894,S
106,1893304,-0.7059,-9.1597,3.1131,-1.1900,-0.1400,0.4200,999.1485,-0.6985,-9.2647,3.1381,1590578894,S
106,1894030,-0.6915,-9.2530,3.0939,1.1900,-0.2800,-0.3500,999.1476,-0.6992,-9.2620,3.1459,1590578894,S
106,1894948,-0.6820,-9.1765,3.1681,-0.6300,-0.4200,-0.7700,999.1475,-0.6905,-9.2711,3.1209,1590578894,S
106,1896448,-0.6939,-9.2267,3.1609,-0.0700,-0.1400,0.2100,999.1474,-0.6913,-9.2649,3.1391,1590578895,S
106,1895033,-0.6748,-9.2124,3.2112,1.4700,-0.5600,-0.9100,999.1470,-0.6850,-9.2632,3.1455,1590578895,S
106,1894483,-0.7442,-9.2626,3.1370,-0.9100,0.1400,0.8400,999.1483,-0.6897,-9.2557,3.1664,1590578895,S
106,1895933,-0.7083,-9.2937,3.1466,1.2600,-0.4900,-0.7700,999.1497,-0.6946,-9.2573,3.1609,1590578895,S
106,1896794,-0.6413,-9.2291,3.1561,-1.0500,-0.4900,1.0500,999.1509,-0.7037,-9.2540,3.1683,1590578895,S
106,1898771,-0.7250,-9.2650,3.1872,1.3300,-0.4900,-0.7000,999.1523,-0.6862,-9.2546,3.1703,1590578895,S
106,1899181,-0.6556,-9.1884,3.1298,-1.1200,-0.0700,0.4200,999.1539,-0.6961,-9.2538,3.1708,1590578895,S
106,1897532,-0.6963,-9.2818,3.1466,1.6800,-0.4900,-0.2100,999.1542,-0.6879,-9.2507,3.1816,1590578895,S
106,1897026,-0.7155,-9.2076,3.1920,-1.9600,-0.1400,-0.1400,999.1551,-0.6863,-9.2599,3.1549,1590578895,S
106,1896708,-0.6748,-9.3416,3.0245,-2.5900,0.2100,1.0500,999.1560,-0.6994,-9.2574,3.1595,1590578895,S
105,1897142,-0.6700,-9.2052,3.2399,0.0700,-0.5600,-0.7700,999.1577,-0.6869,-9.2714,3.1209,1590578896,S
105,1898424,-0.6772,-9.2674,3.1705,-1.8900,0.1400,0.8400,999.1592,-0.6895,-9.2634,3.1439,1590578896,S
105,1897962,-0.6628,-9.1621,3.1729,1.2600,-0.0700,0.0700,999.1597,-0.6884,-9.2577,3.1610,1590578896,S
105,1892305,-0.6150,-9.1908,3.1370,-1.6800,0.0700,0.8400,999.1597,-0.6901,-9.2547,3.1692,1590578896,S
105,1892729,-0.6939,-9.2100,3.1346,1.4700,-0.2100,-0.0700,999.1599,-0.6763,-9.2517,3.1810,1590578896,S
105,1893349,-0.6748,-9.2267,3.1992,0.2100,-0.4900,-0.4200,999.1604,-0.6765,-9.2547,3.1724,1590578896,S
105,1895257,-0.6939,-9.2435,3.1226,-0.9100,0.0700,0.7700,999.1606,-0.6821,-9.2501,3.1845,1590578896,S
105,1894711,-0.6580,-9.2507,3.1418,0.3500,-0.4200,-0.6300,999.1606,-0.6792,-9.2560,3.1680,1590578896,S
105,1891292,-0.6915,-9.2411,3.1442,-1.3300,-0.1400,0.5600,999.1603,-0.6785,-9.2576,3.1633,1590578896,S
105,1891025,-0.7083,-9.2554,3.1035,0.7000,-0.1400,0.5600,999.1600,-0.6863,-9.2521,3.1777,1590578896,S
105,1891231,-0.6030,-9.1956,3.2375,0.4200,-0.4200,-0.2100,999.1594,-0.6889,-9.2558,3.1663,1590578897,S
105,1892775,-0.7011,-9.2291,3.1298,-0.4200,0.1400,0.7000,999.1591,-0.6779,-9.2481,3.1912,1590578897,S
105,1894425,-0.6532,-9.2554,3.1609,0.4200,-0.4900,-0.4900,999.1594,-0.6786,-9.2523,3.1789,1590578897,S
105,1892381,-0.6843,-9.2435,3.1537,-1.4700,-0.4900,0.7000,999.1600,-0.6773,-9.2523,3.1790,1590578897,S
105,1891148,-0.6126,-9.2578,3.1059,0.8400,-0.3500,-0.3500,999.1597,-0.6761,-9.2527,3.1781,1590578897,S
105,1891685,-0.1316,-9.1286,2.5603,-7.2800,-3.4300,-7.7000,999.1591,-0.5888,-9.3247,2.9789,1590578897,S
105,1893177,-0.8160,-9.2291,3.3093,6.9300,1.4700,3.9900,999.1588,-0.5349,-9.3003,3.0639,1590578897,S
105,1894675,-0.6963,-9.1669,3.2710,-0.7000,1.4700,0.3500,999.1582,-0.5946,-9.2822,3.1076,1590578897,S
104,1896551,-0.0263,-8.6357,3.5533,17.8500,-2.1000,-0.9800,999.1573,-0.6169,-9.2164,3.2936,1590578897,S
105,1893583,-0.4116,-9.0712,3.3141,-2.2400,0.1400,-0.6300,999.1567,-0.4954,-9.2170,3.3124,1590578897,S
104,1892374,-0.8662,-9.1238,3.1585,-1.1900,0.7000,2.2400,999.1558,-0.4985,-9.1995,3.3604,1590578898,S
105,1892941,-0.6748,-9.3727,3.2207,-3.4300,1.9600,4.1300,999.1547,-0.6092,-9.1895,3.3694,1590578898,S
104,1894102,-0.5025,-9.5115,2.7924,-5.4600,0.0700,-0.2100,999.1542,-0.6155,-9.2223,3.2773,1590578898,S
104,1895270,-1.0241,-9.1956,3.0413,0.8400,0.2800,2.5200,999.1536,-0.6136,-9.2380,3.2330,1590578898,S
104,1894695,-0.6221,-9.2746,3.3021,1.2600,-0.3500,-0.9800,999.1533,-0.6893,-9.2493,3.1853,1590578898,S
104,1891628,-0.5408,-9.1717,3.0221,-1.0500,-0.4200,-0.9800,999.1525,-0.6657,-9.2525,3.1808,1590578898,S
104,1891028,-0.7537,-9.1741,3.1753,2.3800,-0.1400,1.1900,999.1529,-0.6534,-9.2457,3.2031,1590578898,S
104,1891579,-0.7107,-9.2698,3.0796,-1.6800,-0.4200,-0.3500,999.1543,-0.6696,-9.2513,3.1835,1590578898,S
104,1892983,-0.7226,-9.2865,3.1107,-0.0700,-0.1400,0.2100,999.1551,-0.6795,-9.2563,3.1669,1590578898,S
104,1894909,-0.6245,-9.2172,3.1681,0.7700,-0.1400,0.4200,999.1559,-0.6918,-9.2546,3.1692,1590578898,S
104,1893762,-0.4451,-9.1119,3.0676,-0.5600,-0.4900,-1.4000,999.1573,-0.6661,-9.2648,3.1449,1590578899,S
104,1892023,-0.7202,-9.1669,3.1035,-0.1400,-0.4900,-0.7000,999.1582,-0.6168,-9.2730,3.1308,1590578899,S
104,1892585,-0.7322,-9.3607,3.2495,2.5900,0.4200,2.3100,999.1588,-0.6605,-9.2480,3.1950,1590578899,S
104,1893748,-0.5599,-9.2937,2.9408,-2.2400,-0.4900,-1.1200,999.1591,-0.6612,-9.2597,3.1608,1590578899,S
104,1895757,-0.7083,-9.2554,3.2112,0.3500,-0.7700,-0.9100,999.1588,-0.6329,-9.2783,3.1117,1590578899,S
104,1898110,-0.6676,-9.2530,3.0724,-0.9800,-0.7700,0.2100,999.1581,-0.6473,-9.2706,3.1318,1590578899,S
104,1896215,-0.6676,-9.1956,3.1155,0.2100,-0.4200,-0.2100,999.1575,-0.6496,-9.2735,3.1225,1590578899,S
104,1895718,-0.6532,-9.2794,3.1035,0.7000,-0.4900,-0.0700,999.1570,-0.6534,-9.2694,3.1339,1590578899,S
104,1896658,-0.7466,-9.3033,3.0987,-0.4200,0.0700,0.9100,999.1560,-0.6606,-9.2667,3.1405,1590578899,S
104,1897618,-0.7370,-9.2483,3.0700,-0.4900,-0.4200,0.7000,999.1552,-0.6820,-9.2650,3.1409,1590578899,S
104,1898801,-0.7035,-9.2411,3.0891,-0.6300,-0.0700,0.8400,999.1548,-0.6998,-9.2647,3.1379,1590578900,S
104,1899861,-0.4187,-9.2554,3.0173,0.9800,-2.3800,-4.9000,999.1547,-0.6577,-9.2914,3.0672,1590578900,S
104,1896667,-0.7777,-9.3535,3.2279,1.0500,0.4900,1.7500,999.1550,-0.6260,-9.2825,3.1005,1590578900,S
104,1895492,-0.7011,-9.2794,2.9336,-2.3800,0.0700,0.7000,999.1552,-0.6583,-9.2766,3.1115,1590578900,S
104,1896167,-0.7322,-9.1908,3.1753,1.5400,-0.1400,0.7000,999.1553,-0.6746,-9.2778,3.1044,1590578900,S
104,1897213,-0.6150,-9.2698,3.1155,-0.2800,-0.2800,-0.2100,999.1553,-0.6844,-9.2725,3.1181,1590578900,S
104,1898760,-0.6748,-9.1693,3.0820,-0.2800,-0.2800,0.4900,999.1556,-0.6740,-9.2704,3.1266,1590578900,S
104,1898383,-0.7394,-9.2865,3.0867,-0.2100,-0.2800,0.3500,999.1565,-0.6779,-9.2687,3.1308,1590578900,S
104,1896051,-0.5862,-9.2626,3.0580,-0.7000,-0.3500,-0.1400,999.1573,-0.6878,-9.2734,3.1148,1590578900,S
104,1895981,-0.6580,-9.1765,3.1059,0.6300,-0.0700,0.6300,999.1576,-0.6734,-9.2714,3.1237,1590578900,S
104,1897017,-0.4977,-9.0449,2.8116,-2.3800,-0.5600,-0.9800,999.1570,-0.6607,-9.2831,3.0917,1590578901,S
104,1898573,-0.6915,-9.2339,3.2590,1.7500,-0.3500,0.2800,999.1559,-0.6343,-9.2888,3.0799,1590578901,S
104,1900751,-0.5527,-9.1908,3.0508,-1.5400,-0.4200,-0.4200,999.1550,-0.6403,-9.2827,3.0972,1590578901,S
104,1899181,-0.7059,-9.2865,3.1394,0.7000,-0.0700,0.3500,999.1542,-0.6273,-9.2798,3.1083,1590578901,S
104,1898303,-0.6724,-9.2913,3.0269,-0.3500,-0.2100,0.3500,999.1541,-0.6449,-9.2753,3.1181,1590578901,S
104,1899057,-0.5719,-9.2172,3.0508,-0.3500,-0.2800,0.0700,999.1539,-0.6504,-9.2809,3.1002,1590578901,S
104,1899691,-0.6389,-9.2243,3.0652,0.7000,0.0700,0.5600,999.1544,-0.6409,-9.2776,3.1121,1590578901,S
104,1901069,-0.6748,-9.2148,3.1226,0.0700,-0.2800,-0.0700,999.1548,-0.6404,-9.2791,3.1079,1590578901,S
104,1901779,-0.6485,-9.2578,3.0413,-0.7000,-0.1400,0.4900,999.1553,-0.6512,-9.2748,3.1183,1590578901,S
104,1898590,-0.6796,-9.2842,3.0963,-0.1400,-0.2100,0.4900,999.1559,-0.6548,-9.2758,3.1145,1590578901,S
104,1896956,-0.6054,-9.2435,3.0437,0.4200,-0.0700,0.2100,999.1563,-0.6616,-9.2741,3.1184,1590578902,S
104,1897068,-0.6389,-9.2530,3.0652,-0.0700,-0.1400,0.2100,999.1562,-0.6525,-9.2770,3.1115,1590578902,S
104,1897457,-0.7107,-9.2674,3.0987,-0.0700,-0.2100,0.2100,999.1564,-0.6516,-9.2778,3.1094,1590578902,S
104,1898613,-0.6676,-9.2554,3.0293,-0.0700,-0.3500,-0.2100,999.1575,-0.6612,-9.2785,3.1054,1590578902,S
104,1898069,-0.6891,-9.2578,3.0078,-0.7700,-0.2800,-0.1400,999.1583,-0.6608,-9.2851,3.0854,1590578902,S
104,1894953,-0.5886,-9.2698,3.0628,0.2100,-0.4900,-0.0700,999.1597,-0.6660,-9.2878,3.0762,1590578902,S
104,1894502,-0.6532,-9.2483,3.0628,0.0700,-0.1400,0.2100,999.1614,-0.6524,-9.2873,3.0808,1590578902,S
104,1895013,-0.6796,-9.2507,3.0676,-0.2100,-0.2800,-0.0700,999.1624,-0.6519,-9.2880,3.0786,1590578902,S
104,1896335,-0.6508,-9.2435,3.0173,-0.2100,-0.3500,-0.0700,999.1636,-0.6566,-9.2880,3.0778,1590578902,S
104,1898314,-0.6628,-9.2985,3.0700,-0.4200,-0.2800,-0.1400,999.1650,-0.6544,-9.2923,3.0651,1590578902,S
104,1897181,-0.6652,-9.2985,3.0221,-0.4200,-0.2800,-0.0700,999.1669,-0.6546,-9.2932,3.0624,1590578903,S
104,1895596,-0.6126,-9.2243,3.0508,0.7000,-0.4200,-0.3500,999.1685,-0.6538,-9.2950,3.0570,1590578903,S
104,1896156,-0.6724,-9.2267,3.0604,0.3500,-0.2800,0.1400,999.1694,-0.6474,-9.2920,3.0677,1590578903,S
104,1897135,-0.6413,-9.2722,3.1083,0.3500,-0.3500,0.0700,999.1703,-0.6536,-9.2885,3.0767,1590578903,S
104,1899039,-0.6078,-9.2530,3.0461,-0.4900,-0.2100,0.2100,999.1702,-0.6522,-9.2861,3.0844,1590578903,S
104,1900405,-0.6939,-9.2267,3.0843,0.6300,-0.0700,0.5600,999.1700,-0.6489,-9.2824,3.0961,1590578903,S
104,1896993,-0.6532,-9.2650,3.0939,0.0700,-0.4200,0.0700,999.1705,-0.6585,-9.2799,3.1016,1590578903,S
104,1895825,-0.6461,-9.2722,3.0461,-0.9800,-0.3500,-0.1400,999.1710,-0.6552,-9.2832,3.0924,1590578903,S
104,1896286,-0.7011,-9.3009,3.0341,0.2800,-0.3500,-0.3500,999.1714,-0.6505,-9.2867,3.0830,1590578903,S
104,1896983,-0.6700,-9.2889,3.0652,0.3500,-0.2100,0.1400,999.1713,-0.6617,-9.2870,3.0797,1590578903,S
104,1898348,-0.6150,-9.2124,3.0987,1.3300,-0.2100,0.4200,999.1713,-0.6676,-9.2807,3.0973,1590578904,S
104,1897950,-0.6126,-9.3009,3.0221,-1.1200,-0.2100,0.2800,999.1710,-0.6590,-9.2808,3.0987,1590578904,S
104,1895022,-0.6532,-9.2578,3.0843,1.0500,-0.2100,0.4200,999.1704,-0.6537,-9.2800,3.1024,1590578904,S
104,1894025,-0.6556,-9.2267,3.1250,-0.9100,-0.4200,0.0700,999.1702,-0.6531,-9.2819,3.0967,1590578904,S
104,1894669,-0.6867,-9.2483,3.0604,1.0500,-0.2100,-0.3500,999.1697,-0.6518,-9.2779,3.1091,1590578904,S
104,1895601,-0.6532,-9.2554,3.1250,0.4200,-0.3500,-0.4200,999.1683,-0.6557,-9.2807,3.0999,1590578904,S
104,1897442,-0.6748,-9.2770,3.0843,0.0700,-0.0700,0.2800,999.1669,-0.6577,-9.2764,3.1122,1590578904,S
105,1895717,-0.6628,-9.2459,3.1035,-0.1400,-0.4200,-0.2800,999.1660,-0.6581,-9.2793,3.1034,1590578904,S
104,1894991,-0.7131,-9.2483,3.0556,-0.7000,-0.4200,0.7000,999.1656,-0.6640,-9.2751,3.1148,1590578904,S
104,1895759,-0.6508,-9.2818,3.0915,0.9800,-0.5600,-0.8400,999.1653,-0.6674,-9.2791,3.1021,1590578904,S
105,1896943,-0.6341,-9.2411,3.0556,-1.4700,-0.5600,0.9100,999.1652,-0.6694,-9.2772,3.1075,1590578905,S
104,1898619,-0.6724,-9.2722,3.1059,0.7700,-0.5600,-0.9100,999.1655,-0.6553,-9.2826,3.0943,1590578905,S
104,1899246,-0.6197,-9.2698,2.9791,-3.4300,-0.3500,-0.2800,999.1664,-0.6531,-9.2926,3.0645,1590578905,S
105,1897432,-0.5623,-9.2698,3.0628,0.2100,-0.5600,-1.1900,999.1669,-0.6365,-9.3038,3.0340,1590578905,S
104,1898117,-0.5647,-9.2746,3.0413,0.6300,0.0700,1.4700,999.1675,-0.6347,-9.2907,3.0741,1590578905,S
105,1900348,-0.6700,-9.3105,2.9623,6.4400,1.5400,4.0600,999.1684,-0.6618,-9.2491,3.1917,1590578905,S
105,1901373,-0.6724,-9.1837,3.2040,1.5400,0.2100,1.8900,999.1688,-0.6808,-9.2478,3.1915,1590578905,S
105,1904053,-0.7059,-9.1119,3.2782,-4.1300,-0.2100,1.8900,999.1688,-0.6917,-9.2447,3.1980,1590578905,S
105,1905156,-0.7178,-9.2626,2.9958,-1.8200,-0.6300,-0.6300,999.1684,-0.6883,-9.2450,3.1979,1590578905,S
105,1903701,-0.6126,-9.2243,3.0293,2.6600,-0.1400,0.9100,999.1680,-0.7044,-9.2438,3.1979,1590578905,S
105,1903670,-0.8088,-9.2554,3.1418,-0.8400,0.1400,1.3300,999.1671,-0.6974,-9.2485,3.1858,1590578906,S
105,1904252,-0.8518,-9.1358,3.1992,-0.8400,1.4000,7.4900,999.1665,-0.7817,-9.2073,3.2840,1590578906,S
105,1905977,-0.7657,-9.2363,3.0556,-0.4900,-0.7700,-1.6800,999.1656,-0.7818,-9.2217,3.2434,1590578906,S
105,1907505,-0.6556,-9.2411,2.9838,3.7800,-0.2800,0.4200,999.1643,-0.7857,-9.2196,3.2484,1590578906,S
105,1905571,-0.9069,-9.2985,3.0508,-0.7000,-0.7000,-1.1200,999.1633,-0.7498,-9.2457,3.1821,1590578906,S
105,1904788,-0.7801,-9.2028,3.1681,-1.5400,0.4200,0.0700,999.1622,-0.7808,-9.2585,3.1369,1590578906,S
105,1905275,-0.8207,-9.2148,3.1561,-1.5400,-0.2800,-0.9800,999.1617,-0.7714,-9.2654,3.1190,1590578906,S
105,1906466,-0.7657,-9.2195,3.2231,-0.4900,-0.4900,-1.0500,999.1619,-0.7719,-9.2681,3.1107,1590578906,S
105,1908053,-0.7490,-9.3559,2.9623,9.0300,0.4200,0.2100,999.1622,-0.7817,-9.2326,3.2122,1590578906,S
105,1905978,-0.7011,-9.1789,3.3236,3.9200,0.6300,-0.2800,999.1617,-0.7773,-9.2421,3.1858,1590578906,S
105,1900042,-0.7561,-9.1645,3.4098,1.4000,0.0700,0.3500,999.1614,-0.7667,-9.2276,3.2303,1590578907,S
105,1898058,-0.8279,-9.1525,3.3739,-0.7700,-0.4200,-0.4200,999.1605,-0.7599,-9.2196,3.2545,1590578907,S
105,1897600,-0.6485,-9.1549,3.3954,-1.4700,-0.4900,-0.5600,999.1602,-0.7671,-9.2165,3.2615,1590578907,S
105,1899205,-0.7609,-9.1884,3.3667,-1.6800,-0.2100,0.0700,999.1603,-0.7426,-9.2133,3.2762,1590578907,S
105,1901147,-0.8136,-9.1932,3.3332,-1.4700,-0.3500,-0.4200,999.1612,-0.7409,-9.2134,3.2764,1590578907,S
105,1898692,-0.7083,-9.0664,3.4074,2.8700,-0.4900,-0.4900,999.1617,-0.7529,-9.2014,3.3072,1590578907,S
105,1896927,-0.7274,-9.1669,3.3619,1.0500,-0.1400,0.6300,999.1613,-0.7512,-9.1847,3.3536,1590578907,S
105,1896866,-0.7513,-9.1813,3.3212,-3.1500,-0.3500,-0.1400,999.1603,-0.7423,-9.1943,3.3293,1590578907,S
105,1897724,-0.7609,-9.1286,3.4385,0.2800,-0.4900,-0.2100,999.1596,-0.7420,-9.1938,3.3307,1590578907,S
105,1899532,-0.7298,-9.1549,3.4768,0.7700,-0.3500,-0.2100,999.1600,-0.7444,-9.1832,3.3592,1590578907,S
105,1898935,-0.7226,-9.1597,3.3954,-0.1400,-0.2800,0.2800,999.1613,-0.7430,-9.1732,3.3870,1590578908,S
105,1896746,-0.7561,-9.1621,3.3332,-1.3300,0.1400,0.9800,999.1621,-0.7462,-9.1703,3.3939,1590578908,S
105,1898186,-0.7657,-9.1502,3.3332,-0.2800,0.1400,1.3300,999.1631,-0.7593,-9.1660,3.4026,1590578908,S
105,1900570,-0.7442,-9.2387,3.3404,0.6300,-0.0700,0.5600,999.1641,-0.7661,-9.1641,3.4063,1590578908,S
105,1901571,-0.8279,-9.0257,3.4959,3.2900,0.0700,0.7700,999.1646,-0.7700,-9.1548,3.4304,1590578908,S
105,1902070,-0.8064,-9.1143,3.4241,-1.4000,-0.2800,0.4200,999.1641,-0.7848,-9.1472,3.4473,1590578908,S
105,1899657,-0.7561,-9.0832,3.4720,0.4900,-0.2800,-0.0700,999.1641,-0.7890,-9.1458,3.4499,1590578908,S
105,1898698,-0.7848,-9.1047,3.3787,-1.6100,-0.1400,0.2800,999.1644,-0.7839,-9.1462,3.4501,1590578908,S
105,1900239,-0.8423,-9.1023,3.4241,-1.6100,0.1400,1.2600,999.1640,-0.7942,-9.1469,3.4459,1590578908,S
105,1903477,-0.8806,-9.1860,3.3141,-0.6300,-0.0700,0.9800,999.1639,-0.8117,-9.1419,3.4550,1590578908,S
105,1907499,-1.0193,-9.1502,3.3069,-5.3900,0.4200,2.7300,999.1646,-0.8435,-9.1526,3.4188,1590578909,S
105,1909782,-0.8638,-9.1167,3.3500,-2.0300,2.1700,4.3400,999.1643,-0.9158,-9.1430,3.4259,1590578909,S
106,1909673,-0.9141,-9.2172,3.2064,2.5200,0.5600,-0.2100,999.1639,-0.9081,-9.1424,3.4296,1590578909,S
106,1912062,-0.9212,-9.3942,3.0843,-29.8900,-3.5000,4.3400,999.1633,-0.9100,-9.2213,3.2110,1590578909,S
106,1915258,-0.9428,-9.2674,3.0532,9.3100,1.6800,12.8100,999.1627,-1.0237,-9.1360,3.4141,1590578909,S
106,1917782,-1.8473,-10.5882,2.4024,39.9700,-7.2800,17.0100,999.1626,-1.1612,-8.9081,3.9328,1590578909,S
106,1920229,-1.0146,-9.8465,4.8072,123.4800,-9.1700,-25.9000,999.1613,-1.1330,-8.6414,4.4959,1590578909,S
106,1917806,0.8782,-8.8822,4.5535,-22.4700,-29.4700,-26.4600,999.1606,-0.7725,-8.9122,4.0183,1590578909,S
106,1915747,-1.8664,-5.8600,5.9821,12.3200,-14.2800,-2.9400,999.1604,-0.3873,-8.9731,3.9375,1590578909,S
106,1916483,-0.5049,-8.2552,5.8720,15.7500,-16.2400,-0.1400,999.1600,-0.5714,-8.4475,4.9480,1590578909,S
106,1917729,0.5958,-7.7432,5.3408,-19.5300,4.3400,3.2900,999.1596,-0.5860,-8.4461,4.9488,1590578910,S
106,1919017,-0.2776,-7.8365,5.4150,-22.6100,-2.7300,3.8500,999.1584,-0.3618,-8.4613,4.9443,1590578910,S
106,1912424,0.4690,-7.8580,4.9627,-45.9200,2.8000,7.6300,999.1575,-0.3992,-8.4706,4.9255,1590578910,S
106,1904297,-1.1916,-8.3342,4.1898,-77.4900,22.8200,-4.6200,999.1559,-0.2302,-9.1635,3.4854,1590578910,S
106,1902713,0.7561,-12.3876,1.3567,-16.3100,-17.7800,-10.9200,999.1535,-0.2996,-9.1397,3.5420,1590578910,S
106,1895205,1.0265,-5.3527,5.6207,13.6500,-6.0200,-40.3200,999.1515,0.1017,-6.7569,7.1066,1590578910,S
106,1896665,-0.1866,-9.7795,4.4722,-9.1700,-5.2500,-34.5100,999.1503,0.4756,-7.3301,6.4973,1590578910,S
106,1900089,2.5292,-11.5717,0.9404,-72.5200,-12.5300,-56.4900,999.1495,0.7128,-7.7037,6.0262,1590578910,S
107,1900140,4.8479,-5.1661,0.5791,5.9500,1.1900,-31.2900,999.1480,1.2749,-8.4070,4.8854,1590578910,S
107,1901033,4.0128,-9.4229,5.6973,28.9800,-0.7700,88.8300,999.1472,1.1234,-9.0799,3.5305,1590578910,S
107,1910703,0.9930,-9.2865,2.6680,-29.1200,-64.2600,-38.2200,999.1469,1.7925,-9.0061,3.4419,1590578911,S
107,1915107,3.0796,-9.6766,-0.2345,16.6600,-14.5600,8.1900,999.1469,1.6274,-9.0801,3.3278,1590578911,S
107,1918481,1.0672,-9.1095,4.3597,31.2900,11.7600,-1.8900,999.1458,2.0149,-9.1729,2.8229,1590578911,S
107,1922031,1.6391,-11.3922,5.0417,41.5800,-2.2400,-39.4100,999.1459,2.2408,-8.8273,3.6371,1590578911,S
107,1922345,4.6301,-8.4443,7.9801,81.0600,-98.3500,-80.0100,999.1467,3.2721,-8.1515,4.3609,1590578911,S
107,1922713,13.9214,-2.4837,0.7848,-5.8800,-18.9700,-36.1900,999.1472,3.6833,-7.8488,4.5826,1590578911,S
107,1929582,-2.8020,-4.6373,7.2431,180.2500,-108.0800,-57.5400,999.1480,5.6212,-6.2340,5.0704,1590578911,S
107,1932815,-1.4907,-4.1061,4.2544,-107.0300,-171.2200,-110.3900,999.1480,5.5720,-6.7218,4.4655,1590578911,S
107,1938116,20.0901,-2.2971,1.2227,-98.2100,28.3500,-15.4000,999.1468,4.4893,-7.5535,4.3544,1590578911,S
107,1939953,8.9324,-2.7900,4.0941,46.8300,25.8300,-121.7300,999.1465,5.8254,-6.2657,4.7933,1590578911,S
107,1947832,8.0997,3.0197,3.9960,50.1200,14.3500,-54.8800,999.1451,6.6819,-5.0376,5.1133,1590578912,S
107,1950555,9.1406,-0.5480,3.2399,-59.0800,16.5200,-2.5900,999.1426,7.3885,-3.7639,5.2358,1590578912,S
108,1948684,8.6524,-0.1651,5.0967,4.9700,8.8900,-3.1500,999.1411,7.7824,-3.0531,5.1267,1590578912,S
107,1948082,8.2911,-0.4020,5.1230,19.1800,-18.9700,4.7600,999.1386,8.0010,-2.3949,5.1399,1590578912,S
108,1946684,9.3918,-0.3230,4.2233,1.6100,-5.8100,-2.3800,999.1353,8.1247,-1.9644,5.1284,1590578912,S
108,1943324,8.8511,-0.1986,4.4243,6.8600,1.7500,0.2100,999.1319,8.2465,-1.6021,5.0595,1590578912,S
108,1941608,8.7864,-0.6461,4.7761,-1.8900,8.6800,0.6300,999.1282,8.2971,-1.3303,5.0556,1590578912,S
108,1941526,8.8391,-0.4690,4.5990,2.5200,1.7500,0.8400,999.1242,8.3238,-1.1884,5.0470,1590578912,S
108,1941693,8.7984,-0.5791,4.9053,5.6000,0.8400,-3.2900,999.1206,8.3824,-1.0029,4.9901,1590578912,S
108,1942443,8.7147,-0.1890,4.9316,12.9500,-6.1600,-5.1100,999.1166,8.4117,-0.8390,4.9709,1590578912,S
108,1939627,8.8750,0.0191,4.3932,3.3600,-3.2200,-5.3900,999.1127,8.4798,-0.6607,4.8813,1590578913,S
108,1937387,8.8654,0.2776,4.3908,-17.6400,7.7000,1.6100,999.1089,8.6018,-0.5852,4.6730,1590578913,S
108,1936562,8.7147,-0.3781,5.0704,-4.7600,10.7800,3.6400,999.1051,8.5653,-0.4517,4.7541,1590578913,S
108,1936695,8.5783,-0.4020,5.4126,7.3500,4.3400,2.7300,999.1018,8.3892,-0.4334,5.0600,1590578913,S
108,1937871,8.5304,-0.2010,5.0728,3.2900,-1.8900,0.2100,999.0988,8.3263,-0.4155,5.1644,1590578913,S
108,1937015,8.5065,-0.1077,5.0369,-3.4300,2.2400,-2.2400,999.0955,8.4305,-0.3679,4.9962,1590578913,S
108,1934210,8.7386,-0.2489,4.9340,4.6200,-1.9600,1.4000,999.0925,8.3169,-0.3108,5.1869,1590578913,S
108,1933350,8.6142,-0.1938,4.9555,4.6200,0.2800,-0.5600,999.0898,8.2721,-0.2794,5.2597,1590578913,S
109,1933812,8.6213,-0.0598,4.9651,1.1200,-1.3300,-2.4500,999.0870,8.3749,-0.2422,5.0963,1590578913,S
108,1934771,8.6788,-0.0526,4.9460,2.4500,-0.7000,0.0700,999.0849,8.3094,-0.1984,5.2044,1590578913,S
108,1935810,8.6022,-0.2058,4.9914,0.4200,0.2800,0.0700,999.0834,8.3051,-0.1682,5.2122,1590578914,S
108,1932906,8.6309,-0.0909,4.9795,1.8900,-0.2100,0.4900,999.0816,8.2536,-0.1725,5.2932,1590578914,S
108,1930498,8.5543,-0.1316,5.0273,-0.9800,0.3500,0.7700,999.0807,8.2810,-0.1641,5.2506,1590578914,S
108,1930479,8.6620,-0.1125,5.0106,0.4900,-0.7000,0.7700,999.0799,8.2505,-0.1608,5.2984,1590578914,S
108,1931266,8.6118,-0.1149,5.0249,-0.4900,-0.5600,-0.2100,999.0792,8.3253,-0.1509,5.1804,1590578914,S
108,1932422,8.6644,-0.0526,4.9890,0.0700,0.6300,0.4200,999.0789,8.3173,-0.1460,5.1934,1590578914,S
108,1931875,8.6142,-0.1866,4.9962,-1.7500,0.8400,0.5600,999.0788,8.3736,-0.1362,5.1023,1590578914,S
108,1928788,8.6572,-0.1651,5.0154,-0.8400,0.4200,-0.3500,999.0784,8.4519,-0.1459,4.9713,1590578914,S
108,1927886,8.6046,-0.2489,5.0058,-0.0700,0.6300,-0.0700,999.0775,8.4625,-0.1489,4.9532,1590578914,S
108,1928522,8.6405,-0.1771,5.0536,0.0700,0.0700,0.1400,999.0776,8.4565,-0.1689,4.9628,1590578914,S
108,1929575,8.5711,-0.1244,5.0154,-0.3500,-0.3500,-0.1400,999.0782,8.4769,-0.1698,4.9278,1590578915,S
108,1931051,8.6166,-0.1842,5.0656,0.4200,-0.7000,0.2100,999.0789,8.4535,-0.1606,4.9682,1590578915,S
108,1928811,8.6261,-0.1723,4.9316,0.6300,-0.7000,0.2800,999.0790,8.4221,-0.1646,5.0211,1590578915,S
108,1926713,8.6213,-0.0957,4.9938,4.5500,-0.9100,-0.7700,999.0789,8.3188,-0.1468,5.1910,1590578915,S
108,1926937,8.6118,0.0431,5.0967,-1.1200,0.7700,-0.0700,999.0789,8.3927,-0.1393,5.0708,1590578915,S
108,1928086,8.6094,-0.1220,5.0632,-1.8200,0.2100,0.4200,999.0788,8.4389,-0.1113,4.9943,1590578915,S
108,1929511,8.6333,-0.0909,4.9890,-1.1200,0.2800,-0.4900,999.0787,8.5250,-0.1129,4.8458,1590578915,S
108,1931070,8.5974,-0.1077,5.0393,-0.7700,0.8400,0.4900,999.0793,8.5110,-0.1138,4.8704,1590578915,S
108,1928924,8.5926,-0.0909,5.1111,1.1200,0.1400,0.6300,999.0798,8.4027,-0.1133,5.0549,1590578915,S
108,1927303,8.6118,-0.0646,5.0967,-0.1400,-0.3500,0.1400,999.0804,8.4036,-0.1098,5.0534,1590578915,S
108,1929199,8.5902,0.0239,5.1135,0.3500,-0.8400,2.2400,999.0811,8.2039,-0.1140,5.3715,1590578916,S
108,1932948,8.6261,-0.1388,5.0417,1.5400,-1.6100,-0.4200,999.0823,8.0915,-0.0786,5.5401,1590578916,S
108,1935170,8.6070,0.0311,5.0082,0.0700,-1.5400,-1.8900,999.0840,8.4200,-0.0779,5.0268,1590578916,S
108,1935593,8.6907,0.0718,4.7091,4.6900,-6.3700,0.8400,999.0851,7.4780,-0.0436,6.3441,1590578916,S
108,1932572,8.5854,0.4331,5.0225,-3.7800,-0.4200,-1.2600,999.0864,8.5808,-0.0264,4.7476,1590578916,S
108,1931213,8.6883,-0.5168,4.7163,1.6800,1.0500,2.5900,999.0874,8.9005,0.0490,4.1170,1590578916,S
108,1931669,8.6261,0.1890,4.8670,16.8700,2.1700,4.0600,999.0878,9.7474,-0.0624,1.0746,1590578916,S
108,1933032,8.6764,-0.2943,4.9508,-14.0700,4.5500,-4.6200,999.0876,8.3247,-0.0048,5.1836,1590578916,S
108,1934552,8.5639,0.1866,5.1829,-3.7800,0.7000,-3.5700,999.0877,9.0637,-0.0438,3.7441,1590578916,S
108,1935661,8.4826,0.1866,5.1374,-0.8400,-3.3600,-2.4500,999.0870,9.6803,0.0223,1.5688,1590578916,S
108,1933446,8.6740,0.2201,4.8526,8.6800,-4.9000,4.4100,999.0865,8.9393,0.0392,4.0320,1590578917,S
108,1932581,8.6453,-0.1962,4.9842,-3.0800,0.2800,-2.3800,999.0865,8.3419,0.0837,5.1552,1590578917,S
108,1933477,8.6453,0.2847,4.9292,-3.1500,-1.1200,-1.9600,999.0864,9.8065,0.0335,-0.0523,1590578917,S
108,1934608,8.6524,0.0144,4.8120,0.0700,1.9600,-1.4000,999.0865,7.8537,0.0886,5.8722,1590578917,S
108,1936220,8.5376,0.1842,5.1398,-2.1000,-0.2800,2.1700,999.0867,7.8470,0.0534,5.8814,1590578917,S
108,1936926,8.7051,0.0526,4.8598,0.3500,-3.8500,2.1700,999.0862,8.4651,0.0667,4.9505,1590578917,S
108,1934904,8.7218,0.1244,4.8191,2.0300,0.9800,-1.2600,999.0856,8.4751,0.0782,4.9332,1590578917,S
108,1934146,8.6261,0.0526,5.0704,-1.8900,-1.3300,1.3300,999.0848,8.5330,0.0725,4.8325,1590578917,S
108,1934838,8.6070,0.0550,4.9173,1.6800,0.8400,-0.9100,999.0836,8.5204,0.0795,4.8546,1590578917,S
108,1936256,8.6094,0.0861,5.0130,5.0400,-6.3700,2.1000,999.0824,8.9371,0.0711,4.0365,1590578917,S
108,1938189,8.8104,0.1340,4.6947,4.9000,-2.1000,-1.7500,999.0812,8.8556,0.0996,4.2118,1590578918,S
108,1938735,8.7003,0.2560,4.8814,1.6100,-4.5500,3.9900,999.0808,9.0892,0.0777,3.6811,1590578918,S
107,1936824,8.8989,0.3494,4.3597,-12.3200,5.5300,-5.3900,999.0808,8.1105,0.1185,5.5115,1590578918,S
107,1935970,8.5232,0.0263,5.4221,-2.9400,6.4400,1.8900,999.0806,8.3674,0.1459,5.1124,1590578918,S
107,1936530,8.6620,-0.2130,4.9196,0.4900,-2.3800,1.5400,999.0799,8.4804,0.1132,4.9235,1590578918,S
107,1937569,8.5807,0.1914,5.0441,3.2200,-0.1400,-1.7500,999.0801,8.4768,0.0699,4.9305,1590578918,S
107,1939012,8.6668,0.1220,4.9938,-0.7000,-2.6600,1.6100,999.0804,8.6051,0.0801,4.7027,1590578918,S
107,1938801,8.7314,0.0359,4.9053,2.1000,0.1400,-1.0500,999.0806,8.5820,0.1013,4.7444,1590578918,S
107,1936438,8.6357,0.2393,5.0824,-0.6300,-0.0700,-0.5600,999.0811,8.4979,0.0902,4.8936,1590578918,S
107,1935922,8.7242,-0.1101,4.8550,-1.1200,-1.6800,-0.0700,999.0822,8.4424,0.1160,4.9882,1590578918,S
107,1936393,8.6261,0.1986,4.9651,0.9800,-0.2100,-1.1900,999.0842,8.3590,0.0818,5.1275,1590578919,S
107,1937328,8.6716,0.0790,5.0058,-0.1400,-3.5000,1.9600,999.0863,8.5950,0.0905,4.7210,1590578919,S
107,1938651,8.7625,-0.1220,4.7234,4.6900,-0.4200,-0.2800,999.0874,8.7322,0.1022,4.4618,1590578919,S
107,1937468,8.6213,0.2130,5.0489,1.4700,0.1400,-0.2800,999.0875,8.8251,0.0631,4.2760,1590578919,S
106,1935163,8.7458,-0.0526,4.7210,4.5500,-4.6900,0.5600,999.0872,8.8752,0.0991,4.1702,1590578919,S
106,1935273,8.7553,0.2106,4.7904,4.5500,0.2800,-1.4000,999.0876,8.9061,0.0905,4.1041,1590578919,S
106,1936091,8.7290,0.2704,4.8431,-0.4200,-2.8000,1.6100,999.0877,8.9125,0.1004,4.0900,1590578919,S
106,1937511,8.8271,-0.0120,4.6397,0.2800,0.5600,-0.2800,999.0875,8.7952,0.1369,4.3355,1590578919,S
106,1939224,8.7553,0.3326,4.9795,-0.0700,-0.1400,1.0500,999.0872,8.8744,0.0986,4.1720,1590578919,S
106,1937368,8.7721,0.0550,4.6660,-0.3500,-0.7700,0.7000,999.0868,8.7828,0.1377,4.3604,1590578919,S
106,1935324,8.7194,0.2082,4.8814,2.1700,1.4700,-1.1900,999.0864,8.7555,0.1355,4.4151,1590578920,S
106,1935263,8.7673,0.2656,4.7450,-4.2700,-2.4500,0.7700,999.0861,8.6495,0.1324,4.6194,1590578920,S
106,1936181,8.7410,0.0670,4.6229,-1.7500,1.4700,-1.8900,999.0855,8.4881,0.1667,4.9086,1590578920,S
106,1937376,8.6501,0.2728,5.0130,1.5400,-0.7000,0.7700,999.0852,8.6076,0.1455,4.6966,1590578920,S
106,1938742,8.8008,-0.0311,4.7426,-0.3500,-1.2600,0.0700,999.0852,8.5789,0.1681,4.7480,1590578920,S
106,1936350,8.7194,0.2991,4.7498,1.7500,-0.0700,-0.9100,999.0852,8.5869,0.1395,4.7346,1590578920,S
105,1934709,8.7338,0.1172,4.8263,-0.7700,-0.9800,0.9100,999.0855,8.6221,0.1620,4.6693,1590578920,S
106,1935229,8.7721,0.1412,4.8120,8.7500,-3.2900,-1.0500,999.0867,8.7688,0.1825,4.3869,1590578920,S
105,1936410,8.8176,0.3039,4.7713,3.9900,-6.2300,-1.0500,999.0886,8.7947,0.1907,4.3344,1590578920,S
105,1938070,8.8989,0.1699,4.3956,5.3900,-4.9700,-2.1700,999.0897,8.7801,0.2407,4.3615,1590578920,S
105,1938628,8.8463,0.5815,4.6947,4.5500,-6.6500,2.5200,999.0898,8.9387,0.2162,4.0278,1590578921,S
105,1936513,8.9874,0.2489,4.2760,7.0000,-9.8000,1.1200,999.0893,8.9687,0.2917,3.9557,1590578921,S
105,1936005,9.0712,0.3494,3.9745,4.4100,-1.2600,-3.2200,999.0890,8.9253,0.3169,4.0508,1590578921,S
105,1936745,8.9085,0.5408,4.3908,-1.4000,-0.7000,1.9600,999.0889,8.9656,0.3043,3.9619,1590578921,S
105,1937958,9.0425,0.2249,4.1444,1.0500,-0.4900,0.0700,999.0889,8.9307,0.3518,4.0360,1590578921,S
105,1939480,8.9611,0.6317,4.4722,0.8400,2.1000,0.0700,999.0879,8.9316,0.3275,4.0360,1590578921,S
105,1938767,9.0401,0.2225,4.2832,-1.9600,-1.2600,2.1000,999.0876,8.9143,0.3645,4.0711,1590578921,S
105,1936462,9.0233,0.4092,4.2903,1.2600,2.3800,-0.8400,999.0876,8.8940,0.3451,4.1168,1590578921,S
105,1936078,8.9635,0.4666,4.4387,-3.3600,0.8400,0.9800,999.0872,8.8719,0.3414,4.1645,1590578921,S
105,1936791,8.9803,0.1627,4.2640,-0.2100,0.9800,-0.3500,999.0866,8.8390,0.3669,4.2318,1590578921,S
105,1938035,8.9348,0.4331,4.3741,-0.9100,2.1000,-0.3500,999.0865,8.8197,0.3264,4.2751,1590578922,S
104,1939451,8.9468,0.3685,4.3621,-3.0100,0.5600,2.3800,999.0862,8.8332,0.3216,4.2476,1590578922,S
105,1937707,8.9898,0.2608,4.3932,1.1900,0.2800,-1.0500,999.0862,8.8165,0.3406,4.2806,1590578922,S
104,1935913,8.9037,0.4331,4.4794,-1.3300,0.9100,-0.6300,999.0862,8.7839,0.3253,4.3483,1590578922,S
105,1936228,8.9157,0.3063,4.4961,-0.2800,-0.7000,0.0700,999.0865,8.7790,0.3439,4.3567,1590578922,S
104,1937309,8.9683,0.3063,4.4459,1.4000,-1.4000,-0.5600,999.0869,8.7822,0.3425,4.3503,1590578922,S
104,1938803,8.9611,0.4427,4.3573,-0.0700,-0.8400,-1.5400,999.0874,8.7518,0.3449,4.4110,1590578922,S
104,1939842,8.9133,0.3661,4.4291,0.4900,-0.7700,0.2100,999.0886,8.7784,0.3625,4.3565,1590578922,S
104,1937571,8.9587,0.4379,4.4148,0.4200,-0.5600,0.2100,999.0898,8.7885,0.3614,4.3361,1590578922,S
104,1936598,8.9300,0.3829,4.3860,0.7000,-0.2800,0.4200,999.0918,8.8043,0.3736,4.3029,1590578922,S
104,1937085,8.9539,0.3422,4.4411,0.4200,-0.2100,0.4900,999.0934,8.8164,0.3716,4.2782,1590578923,S
104,1937901,8.9611,0.3111,4.4100,2.8700,-1.5400,-0.1400,999.0934,8.8382,0.3718,4.2331,1590578923,S
104,1939487,8.9539,0.4905,4.1970,-1.1200,1.4700,0.8400,999.0948,8.8313,0.3500,4.2491,1590578923,S
104,1939453,9.0042,0.4092,4.5248,-0.3500,1.3300,0.4900,999.0952,8.8392,0.3733,4.2308,1590578923,S
104,1937061,8.9180,0.4068,4.3789,-0.3500,1.3300,0.9100,999.0958,8.8311,0.3710,4.2479,1590578923,S
104,1936580,8.9396,0.3422,4.4291,0.4900,-0.7700,0.7000,999.0961,8.8436,0.3727,4.2217,1590578923,S
104,1937211,8.9300,0.2752,4.4674,1.4700,-1.1900,0.1400,999.0966,8.8520,0.3675,4.2044,1590578923,S
104,1938413,8.9300,0.3709,4.4267,1.8900,-0.9800,0.1400,999.0960,8.8612,0.3513,4.1864,1590578923,S
104,1939908,8.9396,0.3637,4.4841,-0.7700,-0.0700,0.3500,999.0953,8.8460,0.3496,4.2187,1590578923,S
104,1938709,8.9085,0.3924,4.4172,-0.4200,-0.4200,0.2100,999.0947,8.8314,0.3483,4.2492,1590578923,S
104,1936701,8.9539,0.4044,4.3837,0.4900,-0.3500,-0.3500,999.0944,8.8195,0.3597,4.2729,1590578924,S
104,1936769,8.9683,0.3733,4.3454,0.2100,-0.2800,-0.0700,999.0936,8.8170,0.3682,4.2773,1590578924,S
104,1937761,8.9468,0.3805,4.3789,-0.8400,0.2800,0.3500,999.0930,8.8155,0.3634,4.2807,1590578924,S
104,1938977,8.9228,0.3374,4.4052,-0.9800,0.2800,-0.0700,999.0920,8.8013,0.3639,4.3099,1590578924,S
104,1940495,8.9300,0.3063,4.4339,-1.0500,-0.1400,-0.7700,999.0908,8.7738,0.3606,4.3659,1590578924,S
104,1938501,8.9468,0.3254,4.3813,-0.4200,-0.0700,-0.7700,999.0900,8.7544,0.3533,4.4053,1590578924,S
104,1937106,8.8989,0.4762,4.4267,-0.7700,0.0700,-0.7700,999.0885,8.7387,0.3504,4.4366,1590578924,S
104,1937320,8.9707,0.4116,4.4554,1.5400,0.4200,0.9100,999.0878,8.7792,0.3714,4.3542,1590578924,S
104,1938156,8.8295,0.4116,4.4124,1.3300,0.4200,0.3500,999.0879,8.7956,0.3784,4.3203,1590578924,S
104,1939458,8.9922,0.2656,4.4506,-0.9800,0.7000,0.7000,999.0869,8.7908,0.3771,4.3302,1590578924,S
104,1940059,8.9180,0.3709,4.4459,2.4500,-1.1200,0.5600,999.0858,8.8286,0.3549,4.2544,1590578925,S
104,1937786,8.8965,0.3948,4.4459,0.3500,-0.4900,0.8400,999.0851,8.8385,0.3513,4.2341,1590578925,S
104,1936592,8.9157,0.3900,4.4339,-0.1400,0.2100,0.5600,999.0853,8.8323,0.3544,4.2467,1590578925,S
104,1937302,8.9276,0.3015,4.5751,0.5600,-0.2100,0.9800,999.0858,8.8449,0.3543,4.2206,1590578925,S
104,1938433,8.9109,0.2728,4.4554,0.9800,-0.9800,0.1400,999.0867,8.8395,0.3435,4.2326,1590578925,S
104,1939852,8.9013,0.2489,4.6564,3.5000,-3.2200,-0.1400,999.0869,8.8689,0.3370,4.1712,1590578925,S
104,1939829,8.8941,0.5695,4.2449,0.2800,-1.9600,-0.3500,999.0873,8.8432,0.3214,4.2267,1590578925,S
104,1937669,8.9300,0.2632,4.4985,-0.7000,1.2600,0.5600,999.0872,8.8377,0.3650,4.2347,1590578925,S
104,1937131,8.9324,0.4331,4.4195,0.7000,-0.4200,-0.2100,999.0878,8.8287,0.3469,4.2549,1590578925,S
104,1937802,8.9515,0.4259,4.3645,-0.1400,-0.4200,0.9100,999.0881,8.8360,0.3554,4.2391,1590578925,S
104,1938960,8.9659,0.3302,4.4578,-0.4200,-0.0700,-0.1400,999.0890,8.8233,0.3682,4.2643,1590578926,S
104,1940456,8.8846,0.4164,4.3837,-1.6100,-0.5600,-0.5600,999.0890,8.7912,0.3594,4.3309,1590578926,S
104,1939292,8.8917,0.3422,4.4052,-0.4200,-0.6300,-0.6300,999.0901,8.7767,0.3733,4.3590,1590578926,S
104,1937558,8.8893,0.4738,4.4028,-0.3500,0.0700,-0.7700,999.0909,8.7586,0.3710,4.3953,1590578926,S
104,1937606,8.8965,0.4116,4.3573,-0.2800,-0.2100,0.2100,999.0914,8.7659,0.3881,4.3793,1590578926,S
104,1938248,8.9515,0.3565,4.3597,-0.5600,-0.2100,0.2100,999.0927,8.7725,0.3889,4.3660,1590578926,S
104,1939350,8.8989,0.4259,4.3597,0.3500,-0.4200,-0.4900,999.0932,8.7757,0.3857,4.3599,1590578926,S
104,1940532,8.9109,0.3876,4.4387,0.5600,-0.9100,-0.4900,999.0942,8.7805,0.3975,4.3491,1590578926,S
104,1938247,8.9204,0.3565,4.4530,0.8400,-0.1400,-1.3300,999.0952,8.7627,0.4061,4.3840,1590578926,S
104,1936853,8.9420,0.3541,4.5081,4.6200,-7.0000,3.2900,999.0952,8.8886,0.3794,4.1254,1590578926,S
104,1937287,9.0664,0.6556,4.2138,4.1300,-5.3900,-1.2600,999.0948,8.8939,0.3904,4.1129,1590578927,S
104,1938073,9.0544,0.5001,4.1276,3.1500,-4.8300,-1.2600,999.0949,8.9074,0.4558,4.0768,1590578927,S
104,1939489,9.1143,0.4762,4.0702,1.6100,-3.1500,1.1200,999.0953,8.9452,0.4569,3.9932,1590578927,S
104,1940212,9.1071,0.3589,3.9840,-1.0500,-0.1400,1.1200,999.0964,8.9550,0.4480,3.9722,1590578927,S
104,1937948,9.0616,0.4594,3.9793,-4.9000,0.9100,2.8700,999.0964,8.9701,0.3966,3.9433,1590578927,S
104,1937002,9.1454,0.3900,4.0319,-1.9600,1.4700,1.5400,999.0977,8.9754,0.3926,3.9316,1590578927,S
104,1937568,9.8704,0.9045,5.2092,10.6400,12.7400,2.0300,999.0989,9.0154,0.4025,3.8381,1590578927,S
104,1937284,10.3226,2.6345,6.5659,67.6900,31.3600,4.2000,999.1001,9.0685,0.6028,3.6836,1590578927,S
104,1942521,7.7216,5.2881,4.3382,18.2000,116.5500,136.3600,999.1007,9.3222,-0.2717,3.0320,1590578927,S
104,1943615,-2.3665,-4.4291,0.0263,-32.2000,189.1400,237.5100,999.1010,8.8928,-0.9467,4.0239,1590578927,S
104,1944071,3.6658,-6.6592,5.2905,3.3600,69.4400,141.3300,999.1008,7.3615,-2.5657,5.9495,1590578928,S
104,1952828,-0.6580,-6.1543,11.1769,-60.9700,145.8100,76.1600,999.0991,1.7485,-1.4380,9.5418,1590578928,S
104,1964255,-3.0341,-2.2851,10.9161,67.4800,62.9300,41.6500,999.0978,0.7601,-0.7434,9.7488,1590578928,S
104,1976340,-3.6634,-2.2828,9.2459,30.8700,30.1700,12.6000,999.0981,0.4557,-0.5510,9.7805,1590578928,S
104,1986466,-3.4816,-1.0983,9.6574,46.4800,5.1800,0.0700,999.0967,-1.1671,4.2361,8.7672,1590578928,S
104,1993138,-3.1155,-0.9165,9.2985,1.8200,-0.7000,0.5600,999.0961,-0.6994,-2.7395,9.3902,1590578928,S
104,1997259,-3.4839,-2.4766,8.9300,-22.1200,-5.3200,1.1200,999.0960,-1.0187,-1.7659,9.5924,1590578928,S
104,1999678,-3.2351,-1.6008,9.0377,0.6300,-2.5200,-2.4500,999.0963,-1.3600,-1.8878,9.5266,1590578928,S
104,2003125,-3.4552,-1.3543,9.4588,3.7100,-2.1700,-0.0700,999.0974,-1.6121,-1.7609,9.5116,1590578928,S
104,2008248,-3.0652,-1.8784,9.1190,8.4000,4.6200,-0.0700,999.0986,-1.8747,-1.6136,9.4896,1590578928,S
104,2011887,-3.4792,-1.4788,9.2315,-3.4300,-0.1400,0.1400,999.0986,-2.0752,-1.6992,9.4327,1590578929,S
104,2015587,-3.2303,-1.2132,9.3057,10.9200,1.6800,0.4900,999.0988,-2.2495,-1.5676,9.4156,1590578929,S
104,2019252,-3.1848,-1.7252,9.0760,22.6800,6.5100,-1.6100,999.0994,-2.3204,-1.3183,9.4365,1590578929,S
104,2021915,-3.5892,-0.5838,9.3918,-5.8800,-5.8100,-3.7100,999.1002,-2.4458,-1.4469,9.3859,1590578929,S
104,2023121,-3.3117,-0.7537,9.0832,7.4900,-1.4000,-0.9100,999.1014,-2.5164,-1.2060,9.4012,1590578929,S
104,2025189,-3.4983,-0.9619,9.4253,0.6300,-3.5700,-0.4900,999.1023,-2.5896,-1.1059,9.3937,1590578929,S
104,2027764,-3.1298,-1.1270,9.1645,3.6400,-0.9100,-0.4200,999.1035,-2.6716,-1.0429,9.3779,1590578929,S
104,2028658,-3.3380,-0.7585,9.5402,9.4500,-4.2000,-1.3300,999.1050,-2.6268,-0.9761,9.3977,1590578929,S
104,2030496,-3.2160,-0.9165,9.2674,-6.9300,-0.4900,1.4700,999.1065,-2.7819,-0.9840,9.3522,1590578929,S
104,2031319,-3.2016,-1.3232,9.0305,-27.0900,-0.9100,3.6400,999.1072,-3.1411,-1.1869,9.2139,1590578929,S
104,2031349,-3.2136,-2.2540,8.9755,-15.8900,-1.7500,4.2000,999.1071,-3.3208,-1.3348,9.1302,1590578930,S
104,2032242,-3.2662,-1.3902,9.1693,5.1800,-1.4700,0.9100,999.1078,-3.2465,-1.4657,9.1369,1590578930,S
104,2032637,-3.2327,-1.4979,9.1478,-0.0700,-0.2100,0.7000,999.1083,-3.2507,-1.4488,9.1381,1590578930,S
104,2033431,-3.2710,-1.4118,9.2195,0.6300,-1.6100,0.7000,999.1085,-3.2295,-1.4492,9.1455,1590578930,S
104,2034269,-3.2351,-1.5529,9.1502,-2.4500,-0.5600,1.4700,999.1088,-3.2546,-1.4554,9.1356,1590578930,S
104,2034281,-3.1705,-1.5051,9.1741,4.4100,-1.8900,1.4000,999.1088,-3.2010,-1.4328,9.1581,1590578930,S
104,2034428,-3.2375,-1.4979,9.2387,-7.2100,0.4900,-0.2800,999.1088,-3.2557,-1.5059,9.1271,1590578930,S
104,2035195,-3.1729,-1.7061,9.1334,4.0600,-0.6300,1.1200,999.1094,-3.2112,-1.4656,9.1493,1590578930,S
104,2034493,-3.1777,-1.3615,9.2124,-2.8000,0.9100,0.3500,999.1105,-3.2335,-1.5361,9.1299,1590578930,S
104,2034993,-3.2710,-1.6822,9.3009,-5.0400,-1.7500,-0.2800,999.1107,-3.2458,-1.5384,9.1252,1590578930,S
104,2036766,-3.0963,-1.3950,9.2387,7.4200,-1.7500,-0.0700,999.1111,-3.1640,-1.4977,9.1606,1590578931,S
104,2037942,-3.1801,-1.3519,9.2698,-1.2600,0.3500,-0.6300,999.1114,-3.1594,-1.4881,9.1638,1590578931,S
104,2039008,-3.2662,-1.6415,9.2339,0.8400,-0.2800,0.4900,999.1122,-3.1511,-1.4502,9.1727,1590578931,S
104,2039565,-3.1633,-1.1821,9.3177,4.1300,-1.2600,0.2800,999.1127,-3.1238,-1.4479,9.1824,1590578931,S
104,2039042,-3.2040,-1.5601,9.2674,-2.5900,-1.2600,-0.4200,999.1130,-3.1355,-1.4115,9.1841,1590578931,S
104,2040027,-3.1370,-1.2778,9.2746,5.3200,-1.5400,0.4200,999.1125,-3.0860,-1.3905,9.2040,1590578931,S
104,2040869,-3.1657,-1.2849,9.3033,-3.6400,-0.9800,-0.4900,999.1118,-3.1125,-1.3951,9.1944,1590578931,S
104,2041700,-3.1346,-1.4261,9.2507,-0.6300,-1.0500,-0.3500,999.1109,-3.1120,-1.3744,9.1977,1590578931,S
104,2042677,-3.1011,-1.3280,9.2865,7.0000,-1.1200,1.0500,999.1096,-3.0465,-1.3219,9.2272,1590578931,S
104,2041672,-3.0150,-1.1557,9.2961,0.2800,-0.1400,-0.6300,999.1086,-3.0468,-1.3197,9.2274,1590578931,S
104,2041156,-3.3188,-1.4477,9.4134,1.9600,-1.4000,0.1400,999.1080,-3.0096,-1.2672,9.2470,1590578932,S
104,2041811,-3.0724,-1.0217,9.2674,3.9200,-1.4000,0.4200,999.1066,-3.0083,-1.2601,9.2484,1590578932,S
104,2042409,-3.1107,-1.1438,9.3655,-4.3400,2.2400,-0.8400,999.1066,-3.0762,-1.2524,9.2271,1590578932,S
104,2044252,-3.0197,-1.2132,9.1358,2.8000,2.8700,0.8400,999.1069,-3.0761,-1.2074,9.2331,1590578932,S
104,2047689,-3.1777,-0.9858,9.3105,7.2100,2.5200,-0.1400,999.1071,-3.0231,-1.1560,9.2572,1590578932,S
104,2051347,-3.4217,-1.2084,9.4493,-2.5900,1.4000,-1.3300,999.1078,-3.0786,-1.1458,9.2401,1590578932,S
104,2054344,-3.2614,-0.6963,9.3320,13.3000,0.5600,0.5600,999.1091,-2.9941,-1.0412,9.2802,1590578932,S
105,2056313,-3.3930,-1.1246,9.2483,-2.5900,5.2500,-0.4200,999.1097,-3.1010,-0.9991,9.2497,1590578932,S
105,2057970,-3.3691,-1.0457,9.2770,10.1500,1.0500,-0.0700,999.1097,-3.0435,-0.9397,9.2749,1590578932,S
105,2059619,-3.2997,-0.5767,9.2124,6.8600,1.0500,0.4200,999.1096,-3.0271,-0.9024,9.2840,1590578932,S
105,2059320,-3.6084,-0.7585,9.1860,-1.5400,1.3300,-0.9100,999.1102,-3.0892,-0.8524,9.2683,1590578933,S
105,2057858,-3.4170,-0.7131,9.2483,7.9800,-0.9800,1.1200,999.1103,-3.0565,-0.7643,9.2868,1590578933,S
105,2056774,-3.4696,-0.6843,9.1956,-2.3800,0.7000,-0.4200,999.1106,-3.1505,-0.7744,9.2545,1590578933,S
105,2056432,-3.4624,-0.9188,9.6622,2.3800,0.0700,-1.1900,999.1118,-3.1593,-0.7387,9.2544,1590578933,S
105,2057324,-3.4911,-0.6293,9.1693,-5.7400,-2.7300,-1.5400,999.1130,-3.2436,-0.8132,9.2189,1590578933,S
105,2063639,-3.6514,-0.1292,9.6622,7.7000,5.2500,-1.6800,999.1145,-3.1988,-0.7213,9.2422,1590578933,S
104,2063531,-3.4744,-0.9021,8.9755,7.7700,2.8000,2.8700,999.1150,-3.1017,-0.5334,9.2879,1590578933,S
104,2063042,-3.8692,0.3852,9.5952,9.7300,-0.0700,-2.3800,999.1154,-3.0111,-0.5333,9.3177,1590578933,S
104,2061600,-3.3715,-1.3328,8.9492,-17.0100,-4.4800,-2.0300,999.1159,-3.3610,-0.4970,9.1993,1590578933,S
104,2066354,-3.4768,-0.2776,9.4014,10.4300,0.8400,0.9800,999.1166,-3.2159,-0.5802,9.2462,1590578933,S
104,2067092,-3.4959,-0.2584,9.2602,-13.2300,-0.2800,1.2600,999.1173,-3.5271,-0.6222,9.1292,1590578934,S
104,2067121,-3.6012,-1.1557,9.1884,-6.4400,0.4200,1.6100,999.1177,-3.6947,-0.5964,9.0644,1590578934,S
104,2067687,-3.5246,-0.4499,9.3727,6.2300,-1.4700,0.9100,999.1173,-3.5185,-0.6519,9.1305,1590578934,S
104,2068189,-3.6299,-0.6508,8.8750,-9.1000,3.5700,-1.3300,999.1165,-3.7143,-0.6855,9.0501,1590578934,S
104,2068849,-3.4385,-0.5288,8.9468,5.8100,0.0700,0.3500,999.1157,-3.5971,-0.6351,9.1010,1590578934,S
104,2070707,-3.6036,-0.4642,9.8536,-10.7800,-2.8000,-1.3300,999.1153,-3.7668,-0.7010,9.0272,1590578934,S
104,2071591,-3.7280,0.6867,10.4088,14.3500,-1.6100,-3.7800,999.1155,-3.3383,-0.5399,9.2052,1590578934,S
104,2073375,-3.3667,-0.4618,9.2674,6.3700,3.0800,2.2400,999.1154,-3.1471,-0.3429,9.2816,1590578934,S
104,2073708,-3.4672,-0.5073,9.0975,-2.2400,0.3500,1.1900,999.1146,-3.2782,-0.3829,9.2346,1590578934,S
104,2074133,-3.4552,-0.3494,9.0209,-10.2200,-3.2200,0.9800,999.1137,-3.6055,-0.4868,9.1068,1590578934,S
104,2074420,-3.4193,-0.7896,9.2028,-2.6600,-1.5400,0.5600,999.1130,-3.6625,-0.4795,9.0844,1590578935,S
104,2074656,-3.4528,-0.5886,9.2937,3.1500,-0.5600,0.2800,999.1121,-3.5046,-0.5152,9.1446,1590578935,S
104,2074932,-3.3452,-1.1749,9.0185,17.3600,5.7400,-1.2600,999.1107,-3.0683,-0.3919,9.3060,1590578935,S
104,2074821,-3.3667,-0.1986,9.0114,-4.7600,-2.5900,0.3500,999.1093,-3.2878,-0.5881,9.2204,1590578935,S
104,2076018,-3.5198,-0.4905,9.3727,-4.6900,-0.4900,0.2100,999.1088,-3.4085,-0.5479,9.1789,1590578935,S
104,2076506,-3.4696,-0.5647,9.2028,-2.0300,0.2100,0.1400,999.1074,-3.4663,-0.5504,9.1571,1590578935,S
104,2076612,-3.5294,-0.6867,9.2363,-2.0300,-0.4200,0.4900,999.1062,-3.5120,-0.5678,9.1386,1590578935,S
104,2076367,-3.3954,-0.6389,9.2626,-0.6300,-0.5600,0.3500,999.1059,-3.5186,-0.5940,9.1344,1590578935,S
104,2075911,-3.3476,-0.7370,9.0281,4.1300,2.1000,1.1200,999.1068,-3.4232,-0.5683,9.1722,1590578935,S
104,2075116,-3.5318,-0.2919,9.3942,8.0500,1.3300,-0.4200,999.1084,-3.2545,-0.5406,9.2351,1590578935,S
104,2073585,-3.6443,-0.3876,9.3368,-0.9100,1.0500,1.6800,999.1091,-3.3208,-0.4944,9.2140,1590578936,S
104,2073615,-3.5390,-0.3589,9.2889,3.2200,0.9100,0.4200,999.1100,-3.2864,-0.4450,9.2289,1590578936,S
104,2074720,-3.5390,-0.4044,9.2411,-0.3500,-0.5600,0.2100,999.1109,-3.3240,-0.4290,9.2161,1590578936,S
104,2075740,-3.5557,-0.4499,9.1406,0.4200,0.2100,-0.2800,999.1113,-3.3429,-0.4206,9.2097,1590578936,S
104,2076581,-3.5342,-0.3398,9.2602,-0.5600,-1.3300,0.0700,999.1125,-3.3897,-0.4302,9.1921,1590578936,S
104,2077477,-3.5605,-0.2106,9.2507,-1.6800,0.9800,0.5600,999.1132,-3.4723,-0.4243,9.1615,1590578936,S
104,2078338,-3.5605,-0.4714,9.1382,1.0500,-0.7700,0.5600,999.1133,-3.4441,-0.3713,9.1744,1590578936,S
104,2078635,-3.5892,-0.2847,9.2889,0.1400,-0.0700,0.5600,999.1135,-3.4709,-0.3890,9.1636,1590578936,S
104,2078650,-3.6634,-0.4092,9.2626,-0.7700,0.3500,0.2800,999.1143,-3.5149,-0.3730,9.1475,1590578936,S
104,2078825,-3.4839,-0.4211,9.1454,-0.6300,-1.0500,-0.1400,999.1152,-3.5438,-0.3838,9.1359,1590578936,S
104,2078997,-3.5414,-0.4570,9.2148,-0.7700,-1.4000,-0.1400,999.1159,-3.5439,-0.3972,9.1353,1590578937,S
104,2079203,-3.5103,-0.3589,9.1884,1.1200,-0.7000,-0.2100,999.1157,-3.4922,-0.3996,9.1551,1590578937,S
104,2079281,-3.5581,-0.3613,9.2052,-0.2100,-0.5600,0.3500,999.1137,-3.4999,-0.3920,9.1524,1590578937,S
104,2079506,-3.5079,-0.4020,9.1765,0.7700,-0.2800,0.0700,999.1114,-3.4790,-0.3790,9.1610,1590578937,S
104,2079793,-3.5079,-0.4546,9.2507,0.4900,-1.1200,0.1400,999.1089,-3.4587,-0.3788,9.1686,1590578937,S
104,2080117,-3.5007,-0.2441,9.2578,1.4000,-0.4900,-0.1400,999.1072,-3.4102,-0.3818,9.1867,1590578937,S
104,2080188,-3.5103,-0.5097,9.2435,-0.2100,-1.1900,-0.1400,999.1063,-3.4135,-0.3553,9.1865,1590578937,S
104,2080182,-3.5031,-0.2728,9.2028,0.7000,-0.7700,-0.1400,999.1048,-3.3978,-0.3794,9.1914,1590578937,S
104,2080364,-3.5821,-0.3709,9.2507,-0.2800,0.2800,0.4200,999.1032,-3.4304,-0.3595,9.1801,1590578937,S
104,2080682,-3.5174,-0.2632,9.2124,-0.7700,-0.2100,0.4200,999.1018,-3.4832,-0.3662,9.1599,1590578937,S
104,2080984,-3.5844,-0.4642,9.4038,-2.4500,-0.2100,-0.5600,999.1005,-3.5667,-0.3657,9.1277,1590578938,S
104,2081558,-3.6849,0.0479,9.7125,16.1700,0.4200,-1.0500,999.0992,-2.9406,-0.2520,9.3520,1590578938,S
104,2082423,-3.4193,-0.2824,9.1430,-5.8100,0.7700,0.8400,999.0986,-3.2283,-0.2399,9.2569,1590578938,S
104,2084116,-3.5438,-0.2225,9.3177,2.1700,0.2100,0.1400,999.0989,-3.1691,-0.2306,9.2776,1590578938,S
105,2083953,-3.4959,-0.3230,9.2554,-0.4900,1.1200,0.4200,999.0995,-3.2628,-0.2320,9.2450,1590578938,S
104,2083281,-3.5055,-0.2991,9.2195,-1.8900,-0.3500,0.1400,999.0989,-3.4010,-0.2647,9.1942,1590578938,S
104,2082603,-3.5127,-0.3230,9.2530,1.4700,-0.3500,-0.0700,999.0976,-3.3451,-0.2594,9.2149,1590578938,S
105,2081802,-3.5007,-0.4642,9.2267,-2.8000,-3.0800,-0.2800,999.0965,-3.4705,-0.2936,9.1673,1590578938,S
104,2081092,-3.2758,-0.1723,9.1884,-0.3500,0.1400,0.4200,999.0960,-3.4921,-0.3290,9.1579,1590578938,S
104,2080008,-3.6203,-0.6461,9.2770,0.8400,-0.4200,0.6300,999.0953,-3.4300,-0.2896,9.1827,1590578938,S
105,2079120,-3.5270,-0.2871,9.3033,1.9600,-1.8200,0.6300,999.0956,-3.3836,-0.3403,9.1981,1590578939,S
104,2079220,-3.4792,-0.2680,9.3153,-0.5600,-0.2800,0.6300,999.0954,-3.4286,-0.3321,9.1818,1590578939,S
105,2079277,-3.4313,-0.3230,9.3033,1.0500,-1.3300,0.1400,999.0955,-3.3770,-0.3094,9.2017,1590578939,S
104,2079454,-3.3954,-0.3302,9.2267,-0.2100,-0.7000,0.1400,999.0958,-3.3847,-0.3126,9.1987,1590578939,S
104,2079515,-3.4241,-0.3661,9.2818,0.0700,-0.4900,0.3500,999.0953,-3.3830,-0.3145,9.1993,1590578939,S
104,2078777,-3.4409,-0.2177,9.2315,1.8900,-0.4900,0.2800,999.0962,-3.3096,-0.3082,9.2262,1590578939,S
104,2077892,-3.4409,-0.2154,9.2626,0.7000,-0.2800,0.2800,999.0975,-3.2992,-0.2837,9.2307,1590578939,S
104,2077912,-3.4457,-0.3015,9.2937,-2.1700,0.6300,0.1400,999.0983,-3.4240,-0.2872,9.1850,1590578939,S
104,2078260,-3.4122,-0.3206,9.2818,-0.0700,0.1400,0.2100,999.1002,-3.4285,-0.2896,9.1833,1590578939,S
104,2078716,-3.3978,-0.2847,9.2554,0.4900,-0.2800,-0.0700,999.1023,-3.3936,-0.2913,9.1961,1590578939,S
104,2079163,-3.4337,-0.3661,9.2100,-3.0100,0.5600,0.1400,999.1039,-3.5280,-0.3136,9.1447,1590578940,S
104,2078292,-3.4696,-0.3852,9.2602,-1.4700,-0.1400,0.0700,999.1050,-3.5623,-0.3354,9.1306,1590578940,S
104,2078159,-3.4337,-0.3278,9.2698,-0.5600,-0.1400,0.0700,999.1064,-3.5542,-0.3489,9.1332,1590578940,S
104,2078861,-3.5270,-0.4044,9.1956,0.4900,-0.0700,0.0700,999.1076,-3.5059,-0.3401,9.1522,1590578940,S
104,2079777,-3.4816,-0.4331,9.1932,1.2600,-0.4200,-0.2100,999.1092,-3.4504,-0.3427,9.1732,1590578940,S
104,2081446,-3.4576,-0.2800,9.4062,0.2800,-1.4000,-0.0700,999.1105,-3.4309,-0.3578,9.1799,1590578940,S
104,2082665,-3.3978,-0.3470,9.6311,-6.7200,1.9600,-0.3500,999.1123,-3.6772,-0.3953,9.0825,1590578940,S
104,2083356,-3.3715,-0.2895,9.0688,-2.5200,0.0700,0.4200,999.1140,-3.6905,-0.4019,9.0768,1590578940,S
104,2085430,-3.5366,-0.5623,9.3392,3.3600,0.7700,0.1400,999.1156,-3.5294,-0.3540,9.1427,1590578940,S
104,2085758,-3.4648,-0.4283,9.2339,-0.0700,0.0700,0.4200,999.1177,-3.5179,-0.3931,9.1455,1590578940,S
104,2085755,-3.4624,-0.3996,9.2913,1.5400,-0.8400,-0.2800,999.1205,-3.4392,-0.3875,9.1756,1590578941,S
104,2085592,-3.4146,-0.3326,9.2028,-0.7700,0.0700,0.2100,999.1222,-3.4643,-0.3948,9.1659,1590578941,S
104,2085262,-3.4193,-0.4116,9.2530,-0.1400,-3.5700,-0.1400,999.1226,-3.4269,-0.3822,9.1805,1590578941,S
104,2083977,-3.3428,-0.2728,9.2554,0.4200,-0.7700,0.4200,999.1234,-3.4049,-0.3830,9.1886,1590578941,S
103,2082899,-3.4816,-0.5623,9.2507,-8.9600,-1.6100,1.2600,999.1225,-3.7032,-0.4282,9.0705,1590578941,S
104,2084019,-3.3787,-0.5216,9.4373,-0.0700,-8.3300,-0.9100,999.1204,-3.5484,-0.4528,9.1309,1590578941,S
104,2084168,-3.5701,-0.0909,10.1025,7.4200,-11.0600,4.5500,999.1178,-3.2243,-0.3923,9.2531,1590578941,S
103,2085622,-3.0724,-1.1462,11.0596,-63.4200,-74.4100,-25.4100,999.1166,-3.7835,-0.8226,9.0099,1590578941,S
103,2090499,-2.0435,-5.1805,11.8325,-94.7100,-157.4300,-83.3000,999.1151,-2.2411,-1.6119,9.4101,1590578941,S
103,2092602,0.0526,-3.8979,9.0449,38.9200,-161.2100,-150.9200,999.1132,0.5973,-0.8978,9.7472,1590578941,S
103,2092176,4.6181,0.6102,6.1232,12.6700,-186.2000,-112.0000,999.1131,2.3492,0.3012,9.5163,1590578942,S
104,2092928,7.5039,1.4692,3.9458,-14.0000,-119.9800,-56.9100,999.1136,3.5288,1.7747,8.9760,1590578942,S
103,2093211,8.3103,0.0263,3.9817,-29.5400,-61.3200,-52.2900,999.1141,3.9578,2.9043,8.4895,1590578942,S
104,2093681,8.7266,0.9093,4.2879,-18.2700,-13.3700,-63.3500,999.1135,4.0657,-5.2606,7.2088,1590578942,S
104,2092833,8.7051,2.2062,4.1539,-2.8000,-3.2200,-53.6900,999.1132,5.1344,-3.8736,7.4029,1590578942,S
104,2091195,9.0185,3.6132,3.6826,-61.7400,9.1000,-26.6700,999.1116,5.7035,-2.8892,7.4359,1590578942,S
104,2078602,8.4897,1.8377,5.4580,-22.2600,17.9900,6.7200,999.1102,9.3474,-2.9564,0.2373,1590578942,S
104,2061226,8.3844,1.6319,5.0201,-13.8600,3.0800,10.6400,999.1085,9.5338,-2.2503,0.4623,1590578942,S
104,2050562,8.7051,1.2682,4.8263,9.5900,0.8400,13.2300,999.1070,9.6350,-1.6860,0.7036,1590578942,S
103,2042696,8.5424,0.8806,4.8957,-10.0800,12.0400,6.2300,999.1050,9.6798,-1.2195,0.9928,1590578942,S
104,2036270,8.3342,0.9691,5.7428,-4.4800,2.9400,1.2600,999.1036,9.6915,-0.8508,1.2337,1590578943,S
103,2024396,8.5017,0.8853,5.1159,-0.9100,-1.6800,-3.1500,999.1014,9.6336,-0.4819,1.7698,1590578943,S
103,2013352,8.4538,1.1151,5.3192,7.6300,-3.6400,-5.5300,999.0989,9.4983,-0.1473,2.4355,1590578943,S
103,2008494,8.3486,0.6867,5.3192,15.7500,-3.7100,1.1200,999.0961,9.3064,0.1453,3.0887,1590578943,S
103,2012020,8.6812,2.4957,4.9340,-11.8300,-4.2700,-18.6200,999.0942,9.0226,0.3869,3.8228,1590578943,S
103,2014933,8.4586,1.7539,4.5344,37.6600,3.5700,9.6600,999.0933,8.8791,0.8228,4.0810,1590578943,S
103,2013000,8.3701,1.6893,5.0297,-15.9600,10.6400,-0.7700,999.0927,8.7060,0.9910,4.4038,1590578943,S
103,2000405,8.1093,1.1988,5.7835,-48.7900,8.4000,0.0700,999.0920,8.4236,0.9967,4.9214,1590578943,S
103,1989347,8.2863,1.0648,5.1805,10.2900,-2.5200,5.9500,999.0913,8.4352,1.0230,4.8960,1590578943,S
103,1982599,8.2935,0.8016,5.5059,-0.3500,4.8300,3.0800,999.0917,8.4076,1.0118,4.9455,1590578943,S
103,1977587,8.1978,1.0839,5.4532,-2.2400,2.1700,0.7700,999.0921,8.3561,0.9570,5.0427,1590578944,S
102,1974084,8.2217,0.9978,5.6734,2.1700,-0.7000,4.1300,999.0920,8.3619,0.9591,5.0328,1590578944,S
102,1970720,8.3007,0.7968,5.3743,5.6700,-6.9300,1.3300,999.0927,8.3736,0.9684,5.0115,1590578944,S
102,1961641,8.3294,1.0552,5.2499,-3.0800,4.6200,-1.2600,999.0933,8.2981,0.9341,5.1419,1590578944,S
102,1953922,8.2433,1.0361,5.6949,1.8900,-0.2800,1.1900,999.0939,8.3100,0.9541,5.1190,1590578944,S
102,1949673,8.2624,0.9523,5.4102,3.0100,-2.6600,2.1000,999.0946,8.3048,0.9601,5.1263,1590578944,S
102,1946966,8.3270,0.8016,5.2762,-1.6800,1.5400,2.1000,999.0952,8.2841,0.9379,5.1638,1590578944,S
102,1944911,8.2385,1.1892,5.6064,1.3300,0.9800,-0.8400,999.0958,8.2753,0.9194,5.1811,1590578944,S
102,1942690,8.2528,1.0265,5.4126,-0.3500,-2.5200,2.6600,999.0958,8.2649,0.9484,5.1925,1590578944,S
102,1935569,8.4084,0.6150,5.2427,3.0100,1.4700,-1.4000,999.0954,8.2382,0.9815,5.2288,1590578944,S
102,1930075,8.1811,1.3735,5.7858,2.3100,-0.6300,-1.5400,999.0954,8.2555,0.9233,5.2120,1590578945,S
102,1927551,8.3677,0.9691,5.1805,3.3600,-4.2700,3.9200,999.0944,8.2641,0.9882,5.1864,1590578945,S
102,1926011,8.2840,0.8016,5.3001,1.8900,3.9900,-1.5400,999.0933,8.2466,1.0009,5.2117,1590578945,S
102,1925278,8.1858,1.3926,5.5848,-0.7000,-1.6100,0.7000,999.0927,8.2575,0.9522,5.2036,1590578945,S
102,1923326,8.3701,0.7083,5.1015,-1.4700,0.7000,2.2400,999.0917,8.2164,1.0155,5.2563,1590578945,S
102,1916732,8.2002,1.2179,5.7667,0.0700,3.5000,-1.6100,999.0905,8.2112,0.9655,5.2740,1590578945,S
102,1912786,8.2840,1.0600,5.3408,1.4000,-3.9200,4.6200,999.0896,8.2336,0.9817,5.2359,1590578945,S
102,1911584,8.3533,0.6102,5.3169,1.9600,3.8500,-0.7000,999.0894,8.2103,1.0079,5.2674,1590578945,S
102,1910855,8.0758,1.3280,5.8050,0.5600,-2.1700,-0.4200,999.0891,8.2329,0.9300,5.2463,1590578945,S
102,1911405,8.3629,0.8231,5.0465,-1.3300,0.1400,3.6400,999.0882,8.1894,0.9758,5.3058,1590578945,S
102,1910446,8.1595,1.0193,5.7117,-12.3200,6.4400,-4.8300,999.0882,8.0610,0.9376,5.5055,1590578946,S
102,1904969,8.0447,0.9523,6.0251,3.5700,-4.7600,0.7700,999.0881,8.1050,0.9555,5.4375,1590578946,S
102,1902508,8.3055,0.4834,5.2714,-0.1400,1.4700,-2.5900,999.0880,8.0128,0.9662,5.5706,1590578946,S
102,1902249,8.0997,0.4714,5.6734,-43.8200,11.5500,-9.8700,999.0885,7.3811,0.7523,6.4128,1590578946,S
102,1902368,8.2528,1.3448,4.8646,-23.1000,11.9700,8.6100,999.0894,7.0805,0.5443,6.7632,1590578946,S
102,1903332,7.5805,-0.5767,6.3817,-39.4100,38.1500,9.0300,999.0908,6.6821,0.4896,7.1610,1590578946,S
102,1903634,7.2239,-0.1795,7.4728,-2.3100,9.5200,12.6000,999.0921,6.3046,0.1995,7.5088,1590578946,S
102,1904640,7.3747,-0.3637,6.1950,8.8200,5.1800,19.9500,999.0931,8.4006,0.0647,5.0593,1590578946,S
102,1909312,7.0899,-0.6221,6.3529,-10.1500,21.1400,17.8500,999.0952,6.0309,-0.1365,7.7317,1590578946,S
102,1914161,6.8052,-0.6843,6.5013,-26.3900,40.4600,26.1800,999.0966,6.6442,-0.4981,7.1957,1590578946,S
101,1917946,6.0060,-2.3689,8.0901,-3.1500,43.0500,35.9100,999.0975,5.9645,-0.7013,7.7526,1590578947,S
102,1923266,5.6662,-1.2323,7.5565,52.9900,10.6400,34.8600,999.0972,4.8911,-0.7604,8.4658,1590578947,S
102,1922314,4.7785,-2.5699,8.3557,-12.9500,55.7900,40.0400,999.0963,4.6595,-1.0456,8.5654,1590578947,S
101,1922142,3.9290,-0.2776,9.6120,86.7300,42.5600,0.7000,999.0959,3.4361,-0.6070,9.1649,1590578947,S
102,1930502,3.4576,-0.8901,10.6098,10.8500,-10.6400,5.8800,999.0955,7.8406,-1.1246,5.7819,1590578947,S
102,1936922,4.2544,-1.6606,9.1956,5.9500,-37.9400,0.3500,999.0955,8.1156,-1.1540,5.3830,1590578947,S
101,1942000,4.8933,0.2871,8.9324,22.4000,-44.3100,-2.1700,999.0953,3.7745,-0.5794,9.0326,1590578947,S
102,1948573,4.9292,2.4742,10.5476,90.1600,-90.4400,51.3800,999.0942,9.1526,-1.1758,3.3192,1590578947,S
102,1952873,4.7976,6.3266,9.8656,199.0800,31.3600,139.0900,999.0941,8.7309,-1.0433,4.3420,1590578947,S
102,1950580,-2.6560,1.1414,4.1228,108.8500,42.7000,321.6500,999.0938,8.0829,-3.1305,4.5865,1590578947,S
102,1952570,1.4907,-12.2393,5.6447,14.3500,3.9900,315.9800,999.0936,3.4449,-9.1798,0.1835,1590578948,S
102,1969072,-1.5673,-9.4516,6.5396,-170.4500,30.8000,264.1800,999.0931,4.8386,6.0527,6.0102,1590578948,S
102,1980001,-0.1268,-5.8887,5.1972,-55.3700,1.3300,99.5400,999.0926,1.7380,1.4014,9.5491,1590578948,S
102,1987732,-1.2084,-8.9228,10.0044,-27.7200,1.3300,49.0700,999.0931,1.2743,0.2908,9.7192,1590578948,S
102,1992311,-0.9619,-7.4847,6.0945,-53.0600,-7.8400,-46.0600,999.0933,0.9389,-0.5070,9.7484,1590578948,S
102,1987817,-1.5218,-8.8199,5.6207,76.9300,12.6000,-143.8500,999.0953,0.6086,0.1235,9.7870,1590578948,S
102,1990372,1.3591,-6.6449,7.3316,-32.0600,-24.4300,-90.7200,999.0978,0.3948,0.0933,9.7983,1590578948,S
102,2002144,4.8503,-9.3224,4.7402,-55.6500,-31.0100,-45.4300,999.1010,0.7951,-6.7190,7.0988,1590578948,S
102,2012091,3.7352,-10.0283,5.8409,5.7400,-0.5600,-128.1700,999.1038,1.8287,-5.7005,7.7673,1590578948,S
102,2016355,3.9458,-10.6696,4.5727,-31.0800,-6.3700,-188.7200,999.1059,2.9599,-5.4498,7.5966,1590578948,S
102,2022848,3.1490,3.1848,1.0241,105.6300,15.0500,-246.4700,999.1075,4.0324,-4.1488,7.9182,1590578949,S
102,2024876,8.6716,1.2873,4.8096,-35.9800,45.9900,-56.3500,999.1096,4.8610,-3.3474,7.8318,1590578949,S
102,2028156,6.3817,-2.5627,7.0851,-19.9500,60.9700,-70.4900,999.1107,5.8160,-2.2424,7.5708,1590578949,S
102,2035018,6.1950,2.6536,9.0568,-4.3400,30.9400,13.9300,999.1110,5.6160,-2.3830,7.6781,1590578949,S
102,2041034,6.7071,-1.6989,8.0901,-11.1300,-4.5500,7.5600,999.1093,5.9524,-1.9496,7.5457,1590578949,S
102,2045487,6.3171,0.3230,8.0112,1.1900,-10.6400,26.1100,999.1058,5.8997,-1.9776,7.5798,1590578949,S
102,2048584,7.5422,-1.2562,6.3171,-6.3000,-13.3000,12.5300,999.1030,6.1537,-1.6075,7.4644,1590578949,S
102,2050879,6.4199,2.0243,9.1430,17.7800,-21.7000,21.9800,999.0999,6.2714,-1.5420,7.3799,1590578949,S
102,2053216,6.4941,2.3856,8.2289,40.3200,-87.7100,92.9600,999.0968,5.7837,-1.3429,7.8049,1590578949,S
102,2053061,6.7645,-2.6321,4.2018,6.0200,-87.9200,139.5100,999.0944,5.5950,-1.1969,7.9645,1590578949,S
102,2053505,6.9033,-11.3587,0.3589,-44.4500,-9.1700,32.5500,999.0917,6.3184,-1.9866,7.2320,1590578950,S
102,2054305,6.7478,-3.5462,5.0560,2.5900,65.4500,-50.1900,999.0914,6.6556,-2.4345,6.7784,1590578950,S
102,2047150,5.5226,-4.5942,9.5378,-192.5700,43.8200,-43.3300,999.0924,7.2519,-3.3851,5.6676,1590578950,S
102,2026315,10.9232,-4.8407,0.7322,-153.0900,-30.2400,-112.6300,999.0952,7.8342,-3.4001,4.8203,1590578950,S
102,2020607,6.6568,-0.2967,5.3623,-41.0900,59.0800,-150.1500,999.0970,8.3319,-2.7314,4.3919,1590578950,S
102,2011436,7.5924,-3.2686,4.6086,50.8200,-2.2400,-89.3900,999.0975,8.7582,-1.3580,4.1976,1590578950,S
102,2004371,8.7338,6.7382,1.2921,28.4200,-3.7100,-25.9700,999.0989,8.7782,-1.4334,4.1303,1590578950,S
102,1995568,8.5519,2.0794,4.2616,-1.9600,26.1800,35.5600,999.0995,8.9148,-0.9927,3.9638,1590578950,S
102,1990511,8.6118,-0.0048,6.2022,-22.8200,14.7700,0.2100,999.0994,9.1289,-0.3647,3.5637,1590578950,S
102,1989049,8.6644,0.8016,4.4913,4.6900,-12.2500,-10.2900,999.0994,9.2317,-0.1572,3.3047,1590578950,S
102,1989402,8.7051,2.2660,4.1085,1.4000,-7.7700,-6.0200,999.0991,9.4373,0.1515,2.6619,1590578951,S
102,1991018,9.5665,1.5482,3.6945,-24.0800,-30.3800,-12.2500,999.0999,9.7347,0.6591,0.9858,1590578951,S
102,1989412,8.9348,1.0935,4.5679,-0.2800,-12.7400,-12.1800,999.0997,9.7624,0.8286,-0.4232,1590578951,S
102,1985223,9.3224,2.4048,2.6369,16.2400,-4.5500,-5.3900,999.0999,7.2376,0.7543,6.5740,1590578951,S
102,1983073,8.7242,1.4453,5.1805,25.8300,2.7300,3.9900,999.1013,8.4602,1.2848,4.7901,1590578951,S
102,1983156,9.4516,3.5533,3.5294,25.3400,24.7100,5.2500,999.1020,8.4708,1.3559,4.7516,1590578951,S
102,1984302,8.8846,1.9549,3.6012,16.3100,1.9600,1.4700,999.1030,8.6227,1.7765,4.3202,1590578951,S
102,1985504,8.8606,4.4483,2.8810,49.7000,20.1600,24.3600,999.1040,8.7851,1.7963,3.9705,1590578951,S
102,1983673,8.6189,6.1950,-2.2828,-105.2100,147.3500,107.2400,999.1055,8.5653,1.3786,4.5723,1590578951,S
102,1976712,6.2046,-4.4746,4.4626,-18.6200,215.8100,175.3500,999.1071,8.4029,0.7976,4.9926,1590578951,S
102,1975075,-1.5912,-4.0487,16.1874,147.0700,134.6800,-27.5100,999.1072,8.0170,0.7630,5.5960,1590578952,S
102,1976769,1.2873,-0.3206,10.1575,-3.7100,-63.0000,-22.0500,999.1084,8.3925,-0.0943,5.0723,1590578952,S
102,1975117,6.0730,-1.0050,7.0110,-1.4000,-5.7400,-1.9600,999.1096,8.1390,-0.1887,5.4673,1590578952,S
102,1971990,2.8355,-1.5553,9.8967,-18.9700,19.0400,19.1800,999.1097,8.3417,-0.6129,5.1196,1590578952,S
102,1967088,3.1274,-1.8425,9.2219,2.0300,-5.3900,3.0800,999.1085,8.1176,-0.9567,5.4185,1590578952,S
102,1962769,3.9386,-1.8042,8.7673,8.8900,10.9200,13.6500,999.1076,7.5839,-1.2416,6.0920,1590578952,S
102,1963222,2.4455,-2.0100,9.8321,23.7300,13.8600,11.8300,999.1068,7.2413,-1.3427,6.4755,1590578952,S
102,1964168,0.9260,-5.9007,10.9065,43.3300,-11.6200,-38.5700,999.1062,7.1374,-1.2973,6.5988,1590578952,S
102,1969662,3.7424,-1.4453,6.9272,-31.9200,0.4200,-98.9100,999.1061,2.5813,-0.6535,9.4382,1590578952,S
102,1968950,4.8239,4.9795,10.8180,58.5900,12.4600,23.1000,999.1052,6.4003,-1.1996,7.3327,1590578952,S
102,1960792,1.9789,-2.5771,8.3581,-33.1800,68.8100,105.4200,999.1046,4.9814,-1.0835,8.3775,1590578953,S
102,1958171,2.0291,-4.1252,8.3318,113.6800,91.2800,68.3200,999.1045,3.6632,-0.7995,9.0616,1590578953,S
102,1955495,-1.9167,0.9284,10.8108,79.3800,118.0200,146.4400,999.1043,0.4630,0.2924,9.7913,1590578953,S
102,1959946,-5.7356,0.4881,11.3396,-86.0300,94.5000,123.0600,999.1046,-1.1541,1.5503,9.6143,1590578953,S
102,1971429,-7.9992,-4.7761,11.2152,211.8900,100.9400,26.1100,999.1050,-4.1050,8.4883,2.6960,1590578953,S
102,1992688,-8.0542,-2.3019,8.4347,5.4600,-22.8200,-146.3700,999.1046,-4.6564,7.1915,4.7719,1590578953,S
102,2000857,-1.7779,-0.9882,7.2311,-37.4500,17.1500,-163.9400,999.1042,-5.9600,5.9424,5.0335,1590578953,S
102,1999491,-3.2734,4.1157,6.7454,86.9400,83.9300,-76.2300,999.1040,-6.5037,6.2970,3.7710,1590578953,S
103,2002252,-10.8467,5.1565,4.9723,190.8200,231.3500,109.9000,999.1037,-6.8394,6.9486,-1.0536,1590578953,S
102,1999617,-8.3533,3.4839,0.4307,-67.7600,193.7600,83.6500,999.1039,-6.0220,-7.1981,-2.8448,1590578953,S
103,2000496,-8.6620,0.6293,0.2249,-30.3100,158.9000,78.6100,999.1047,-7.3803,-5.8057,-2.8277,1590578954,S
103,2011796,-7.8389,2.5172,-3.4265,-4.3400,105.4200,155.4700,999.1064,-2.6730,-8.2417,-4.5934,1590578954,S
103,2019653,-16.6182,-3.4911,7.2072,-61.3900,15.1900,132.5100,999.1103,-8.4187,-4.2365,-2.7108,1590578954,S
103,2017463,-16.1444,7.8532,-15.8907,138.8100,-63.3500,-325.2900,999.1142,-1.8772,-9.0977,-3.1429,1590578954,S
103,2028526,-10.1360,6.7573,0.8399,-98.5600,-67.4100,-63.0700,999.1190,-8.2749,-4.9422,-1.8087,1590578954,S
103,2026068,-7.7408,2.6919,2.0626,-190.6100,-41.2300,-86.6600,999.1236,-8.2926,-4.7498,-2.2006,1590578954,S
103,2013115,-3.4863,0.7298,1.3400,43.9600,-47.1100,-96.8100,999.1277,-8.3824,-4.8823,-1.4386,1590578954,S
103,2010052,-11.7488,-4.1013,0.9835,-15.3300,-33.0400,-10.2200,999.1327,-8.7879,-4.2504,-0.9370,1590578954,S
103,2009212,-9.2483,-3.0078,1.2706,-10.0800,-23.7300,-9.5200,999.1356,-8.8604,-4.0272,-1.2026,1590578954,S
103,2005902,-9.2148,-3.4313,0.4116,-17.1500,-9.3800,-58.3100,999.1373,-8.7487,-3.8469,-2.1980,1590578954,S
103,2003696,-7.6331,-5.4245,0.3254,59.7800,17.7100,-43.4700,999.1392,-8.6127,-3.5426,-3.0727,1590578955,S
103,1997706,-8.2146,-4.8000,0.6772,82.3900,17.1500,-20.0900,999.1412,-7.5841,-2.9743,5.4593,1590578955,S
102,1993382,-10.7031,-4.2233,1.4572,74.4100,11.6900,2.1000,999.1425,-7.8694,-3.1942,4.9031,1590578955,S
102,1992232,-11.1817,-3.6467,3.8477,70.8400,27.0900,21.8400,999.1435,-8.1391,-2.9309,4.6190,1590578955,S
102,1992712,-10.8084,0.5982,1.7946,42.3500,20.1600,-60.6200,999.1447,-8.0284,-3.1767,4.6501,1590578955,S
102,1993824,-6.4032,0.8279,3.1561,-31.9200,16.6600,4.9000,999.1453,-8.2575,-2.8239,4.4733,1590578955,S
102,1991612,-10.8060,-0.4905,2.2277,14.9800,16.6600,61.7400,999.1455,-8.3825,-1.9055,4.7194,1590578955,S
102,1989094,-9.0305,-2.8953,3.8596,115.7100,37.8000,98.0700,999.1453,-9.1972,-1.2028,-3.1835,1590578955,S
102,1989541,-9.3392,-2.0267,4.0534,37.5200,15.6100,101.0100,999.1456,-9.1730,-0.4860,-3.4337,1590578955,S
102,1989644,-10.5571,-2.0961,5.1063,2.8700,-20.2300,30.0300,999.1457,-9.0436,-0.4972,3.7598,1590578955,S
102,1989829,-14.7087,-3.1825,4.9555,9.7300,-59.2200,-64.4700,999.1454,-8.2177,-1.0451,5.2485,1590578956,S
102,1989353,-8.4562,-1.9525,2.2899,-6.6500,-69.6500,-150.1500,999.1451,-7.4249,-2.1258,6.0433,1590578956,S
101,1987733,-9.8465,-2.8762,1.9214,14.0000,-59.5000,-113.9600,999.1437,-7.1435,-2.8516,6.0835,1590578956,S
102,1986386,-9.4971,-2.6489,1.3902,37.8700,-29.3300,-92.5400,999.1422,-7.1432,-3.4407,5.7711,1590578956,S
101,1986524,-9.5450,-1.9310,1.6917,38.8500,-3.9200,-74.4800,999.1413,-7.3578,-3.8560,5.2119,1590578956,S
101,1987165,-7.6020,-2.3019,2.3043,-33.6000,24.5700,-49.1400,999.1405,-7.8094,-4.0832,4.3026,1590578956,S
101,1989671,-6.8028,-3.2136,3.2112,-29.6100,58.8000,36.2600,999.1389,-8.4482,-3.6724,3.3633,1590578956,S
101,1988110,-9.8201,-4.5559,4.5607,100.4500,104.5100,135.2400,999.1381,-9.2875,-2.1419,2.3075,1590578956,S
101,1988258,-10.5236,-2.2158,4.2353,129.4300,62.9300,106.2600,999.1372,-9.5874,-1.1168,1.7334,1590578956,S
101,1986750,-8.8774,-1.8185,4.6684,136.3600,29.0500,1.7500,999.1362,-9.2650,-1.0058,3.0526,1590578956,S
101,1985846,-10.4806,-2.3354,4.0319,111.0200,0.7700,-42.1400,999.1353,-8.3712,-1.0562,4.9979,1590578957,S
101,1987210,-13.8736,-3.6299,2.9312,24.5700,-19.2500,-20.8600,999.1344,-8.2024,-1.2153,5.2358,1590578957,S
101,1982155,-9.7843,-3.0867,-0.6437,227.7100,-3.0800,-109.9000,999.1334,-9.2964,-2.3252,-2.0836,1590578957,S
101,1980359,-8.8750,-2.7805,1.9262,69.9300,-32.0600,-101.3600,999.1321,-8.9698,-2.7307,-2.8733,1590578957,S
100,1983752,-10.7940,-1.3424,1.4285,-27.5100,-79.4500,-137.4100,999.1318,-7.2222,-3.0403,5.8963,1590578957,S
100,1987743,-9.2746,-3.1801,2.5699,-11.2700,-56.0000,-76.0900,999.1313,-6.9682,-3.5094,5.9413,1590578957,S
100,1990572,-7.5015,-3.3308,1.7946,-13.3000,0.4900,51.4500,999.1317,-7.6603,-3.4113,5.0847,1590578957,S
100,1988458,-7.7886,-2.7517,2.2445,52.9200,73.6400,79.5200,999.1329,-8.4797,-2.7488,4.0878,1590578957,S
100,1988191,-8.8774,-2.9121,2.9240,57.4000,92.7500,107.1000,999.1340,-9.2673,-1.7382,2.6956,1590578957,S
100,1988400,-9.5402,-2.4550,3.9553,63.5600,78.5400,63.6300,999.1351,-9.5610,-1.2327,1.7995,1590578957,S
100,1988437,-9.4110,-1.8018,4.6971,75.8100,38.9200,-27.2300,999.1352,-9.3464,-1.4938,2.5659,1590578958,S
100,1989931,-10.6193,-2.4837,4.4794,20.3700,-21.2800,-37.1000,999.1349,-8.9693,-1.7585,3.5537,1590578958,S
100,1988108,-8.2337,-2.5316,3.8022,12.9500,-53.3400,-44.8700,999.1343,-8.4882,-2.1113,4.4343,1590578958,S
100,1984596,-13.7683,-2.7422,3.1059,31.3600,-64.6800,-56.2100,999.1343,-7.9081,-2.4793,5.2427,1590578958,S
101,1983007,-8.0495,-1.8185,2.4263,17.7100,-57.5400,-113.8200,999.1346,-7.2530,-3.1389,5.8062,1590578958,S
100,1984302,-8.4778,-2.3354,1.8616,30.6600,-48.3700,-104.7200,999.1335,-6.6812,-3.5410,6.2444,1590578958,S
101,1988151,-8.6931,-2.5603,2.2947,-41.5100,-28.1400,-14.2100,999.1334,-7.1788,-3.9050,5.4209,1590578958,S
101,1988315,-8.4491,-3.4098,2.7805,-50.6800,36.8900,101.9200,999.1329,-8.3376,-3.2578,4.0052,1590578958,S
101,1985556,-9.3559,-2.7876,3.5151,40.0400,86.1700,108.9200,999.1318,-9.1603,-2.1737,2.7447,1590578958,S
102,1987498,-9.2315,-1.1557,4.0941,-8.6800,67.6900,88.6200,999.1309,-9.5490,-1.3362,1.7894,1590578958,S
101,1988237,-9.1717,-2.8140,4.5440,-36.6100,49.0700,73.0800,999.1299,-9.7132,-0.5983,1.2110,1590578959,S
102,1989153,-8.8247,-3.1394,4.9603,14.0700,34.8600,51.6600,999.1289,-9.7230,-0.4641,1.1907,1590578959,S
102,1987213,-10.6385,-2.2229,4.5200,-3.0100,-10.0100,15.5400,999.1280,-9.5742,-0.9095,1.9178,1590578959,S
102,1983749,-10.1456,-2.3354,3.4098,9.9400,-46.6200,-62.3700,999.1271,-9.1658,-1.7303,3.0273,1590578959,S
102,1982393,-13.2227,-2.7829,1.8042,71.8900,-56.2100,-119.2100,999.1265,-8.2581,-2.6562,4.5737,1590578959,S
102,1983153,-7.6977,-1.6223,1.8353,-30.3800,-65.4500,-128.5200,999.1254,-7.5385,-3.8019,4.9887,1590578959,S
102,1985249,-8.1356,-2.7661,1.6104,33.3900,-35.7000,-90.5100,999.1237,-7.0747,-4.1449,5.3795,1590578959,S
103,1985003,-9.6359,-2.4718,2.6536,40.3900,-8.2600,-13.5100,999.1231,-7.2161,-4.0590,5.2557,1590578959,S
102,1985291,-7.4584,-1.4788,3.7735,-18.4100,23.2400,55.6500,999.1230,-8.0580,-3.5190,4.3424,1590578959,S
103,1986304,-8.8056,-2.4957,3.4863,70.0000,75.2500,63.2800,999.1229,-8.6892,-2.4890,3.8044,1590578959,S
103,1990045,-7.7815,-1.8042,5.0800,69.5100,81.7600,111.1600,999.1230,-9.3541,-1.3716,2.6058,1590578960,S
103,1993751,-9.1693,-3.0628,4.5105,-0.7700,33.6700,183.6800,999.1230,-9.7586,0.1551,0.9570,1590578960,S
103,1988959,-6.2118,2.0913,2.0698,146.2300,23.2400,24.3600,999.1229,-9.7329,0.0008,1.2003,1590578960,S
103,1986632,-10.3825,5.1206,-1.3113,-84.4900,17.5000,34.3700,999.1231,-9.7902,0.5489,0.1421,1590578960,S
104,1984955,-9.5689,5.9629,-0.4235,21.2100,35.8400,60.6900,999.1230,-9.3151,1.2956,-2.7788,1590578960,S
104,1983151,-9.9541,2.0626,-0.4499,63.0700,8.3300,81.2000,999.1229,-8.5633,2.1283,4.2790,1590578960,S
104,1982666,-10.5882,4.5129,0.3398,36.9600,4.2700,41.7200,999.1238,-9.0619,2.6596,2.6417,1590578960,S
104,1976320,-9.2889,3.6036,-0.0502,-5.5300,9.7300,-22.5400,999.1255,-9.2563,2.5010,2.0580,1590578960,S
104,1972911,-9.1980,3.6945,0.5336,50.0500,-2.5900,-39.8300,999.1265,-9.4696,2.2461,1.2051,1590578960,S
105,1971417,-11.2822,3.6012,0.2560,42.6300,-27.3000,-64.7500,999.1276,-9.5420,2.0159,1.0285,1590578960,S
104,1969970,-9.9350,1.9167,-0.1412,68.1800,-28.8400,-88.8300,999.1296,-9.6237,1.6436,0.9233,1590578961,S
105,1966920,-10.6289,-0.2728,-0.6102,94.1500,-52.1500,-110.4600,999.1315,-9.5074,2.1934,0.9843,1590578961,S
105,1962980,-10.0929,-1.3711,-2.4550,46.5500,-63.4200,-96.3900,999.1337,-9.1804,3.3729,0.7169,1590578961,S
105,1962775,-10.1671,-2.4790,-2.1320,85.6800,-11.4100,-100.5900,999.1357,-9.0386,-3.4219,1.6629,1590578961,S
105,1963604,-11.7655,-5.3384,-2.1224,84.0000,30.2400,-136.8500,999.1378,-5.3852,-6.8863,4.4441,1590578961,S
105,1965211,-9.1214,-7.7025,-1.3998,94.1500,99.7500,-261.3100,999.1400,-8.2382,-4.4570,2.9047,1590578961,S
106,1961011,-5.8505,-7.9753,-0.5575,83.7900,181.0200,-276.2200,999.1423,-7.3124,-5.9342,2.7358,1590578961,S
105,1956824,-5.6327,-5.4772,1.6534,32.7600,154.0700,-172.7600,999.1445,-4.1007,-5.8322,-6.7335,1590578961,S
107,1957224,-2.9719,-5.9366,3.6921,82.3200,87.7100,-36.4700,999.1461,-3.7023,-6.9525,-5.8418,1590578961,S
106,1960934,-0.7370,-7.1569,4.4243,25.2000,65.0300,-15.9600,999.1465,-3.5961,-7.5804,-5.0771,1590578961,S
107,1970693,-0.7035,-9.0185,6.9248,-67.6900,43.3300,-14.0000,999.1451,-3.6010,-7.6932,-4.9008,1590578962,S
107,1975776,2.0554,-10.3609,5.0752,12.6000,-45.7100,-19.2500,999.1434,-3.8926,-8.1524,-3.8153,1590578962,S
107,1977909,2.9719,-9.9398,2.7733,29.3300,-21.4200,-36.8200,999.1411,-7.7096,-1.4615,-5.8819,1590578962,S
108,1978496,0.8542,-9.9470,3.3595,71.6100,37.8000,-61.0400,999.1386,-8.4768,-3.1950,-3.7558,1590578962,S
107,1980639,1.2084,-8.1500,3.6586,40.4600,26.3200,-34.3000,999.1355,7.7858,-5.7651,-1.5215,1590578962,S
109,1984264,1.0289,-7.3579,4.5344,3.2200,17.2900,-49.0000,999.1329,0.0018,-9.7787,0.7397,1590578962,S
108,1984014,1.2036,-8.4491,4.2042,-27.8600,34.6500,-30.7300,999.1311,-0.4585,-9.6941,1.4084,1590578962,S
108,1983121,1.0337,-8.1858,5.0584,-3.1500,11.4800,20.6500,999.1307,-1.3644,-9.1611,3.2224,1590578962,S
109,1984102,1.0361,-10.4782,4.9340,-49.0700,9.5200,64.5400,999.1304,-1.1130,-9.1706,3.2912,1590578962,S
108,1984891,1.0409,-7.6618,4.7809,-69.5100,59.0800,-3.8500,999.1296,-0.4647,-9.5689,2.0954,1590578962,S
109,1982862,-0.1316,-7.4321,3.8142,-102.3400,63.1400,1.9600,999.1279,-0.0188,-9.7003,1.4405,1590578963,S
109,1973863,-0.4546,-9.8034,1.8808,-152.6700,49.4200,16.0300,999.1255,1.4297,-9.3524,-2.5803,1590578963,S
109,1956370,0.3039,-9.6168,1.0146,-190.1900,61.4600,28.9800,999.1232,2.5443,-7.1612,-6.1979,1590578963,S
109,1948564,-0.5336,-9.8441,-5.2618,-93.2400,23.1000,40.2500,999.1204,0.5442,-9.4739,-2.4739,1590578963,S
109,1949394,-0.0790,-10.5236,-5.5585,-0.9100,30.5900,33.5300,999.1187,0.5058,-9.4992,-2.3832,1590578963,S
110,1941900,-0.4068,-6.3458,-2.3833,40.8100,52.5700,-16.4500,999.1177,1.0110,-9.5015,-2.2070,1590578963,S
109,1936792,-2.2875,-10.8706,-4.3119,26.1800,24.9900,10.2200,999.1176,1.2212,-9.5357,-1.9363,1590578963,S
110,1932209,-2.2469,-8.4467,-2.4814,18.6200,-6.2300,-40.8100,999.1185,1.8687,-9.4475,-1.8500,1590578963,S
110,1930008,-2.0291,-8.9276,-0.7202,63.6300,-88.6200,-38.2900,999.1196,1.7309,-9.5638,-1.3072,1590578963,S
110,1927041,-1.2419,-11.1793,-0.1866,74.6200,-170.4500,-0.5600,999.1219,0.1808,-9.7949,-0.4454,1590578963,S
111,1920119,-0.5886,-9.2674,1.0122,-6.5800,-169.1900,35.3500,999.1239,-0.4126,-9.7944,-0.2634,1590578964,S
110,1911021,-0.7896,-10.6863,-2.2493,28.1400,-110.1800,-20.7200,999.1259,-0.5025,-9.7902,0.2654,1590578964,S
112,1904746,-0.5192,-7.4345,1.6128,-16.8000,-94.9900,-1.9600,999.1277,-0.3590,-9.8000,-0.0373,1590578964,S
111,1900934,1.1198,-8.6333,0.6150,-101.0800,-103.4600,-1.4700,999.1287,-0.1929,-9.7803,-0.6919,1590578964,S
112,1895164,1.9310,-9.4780,-0.1460,22.1200,-36.4700,32.1300,999.1302,-0.5386,-9.7830,0.4167,1590578964,S
112,1885962,-1.3232,-13.1486,-0.8016,-76.3700,-14.1400,17.5000,999.1306,-0.2595,-9.3084,3.0753,1590578964,S
112,1880540,0.3039,-10.3346,-3.0413,31.3600,0.2800,-74.2000,999.1299,0.1567,-9.7056,1.3954,1590578964,S
113,1876553,-1.5003,-8.9611,0.5216,10.5000,8.9600,-75.6000,999.1296,0.4946,-9.2276,3.2829,1590578964,S
113,1874469,0.7442,-7.3460,-1.0265,3.0800,-40.0400,-66.7800,999.1303,0.4709,-9.3695,2.8569,1590578964,S
112,1873953,1.3519,-7.7695,-2.7685,13.3000,-60.4100,-21.3500,999.1310,0.7382,-8.8625,4.1330,1590578964,S
114,1870321,1.4046,-10.2676,-1.6367,133.7700,-37.1700,32.6200,999.1315,0.7650,-8.7775,4.3059,1590578965,S
113,1869663,2.4981,-8.0423,0.9045,-62.3700,-43.4700,51.8000,999.1321,0.4285,-9.7910,0.3510,1590578965,S
114,1871904,1.2036,-10.1001,2.0722,19.9500,29.4000,54.7400,999.1321,0.1092,-9.8051,0.1370,1590578965,S
114,1872951,0.0072,-9.8919,1.6104,2.5200,-9.3100,14.3500,999.1320,0.1773,-9.7964,0.4116,1590578965,S
114,1873153,0.7992,-8.7577,0.9858,-18.0600,-45.9900,-6.7900,999.1318,0.2120,-9.7939,0.4518,1590578965,S
115,1868474,1.2730,-9.4995,-0.0215,-55.9300,-59.7100,-6.7900,999.1308,0.2585,-9.8027,0.1048,1590578965,S
115,1866864,-1.8975,-11.3946,-4.1061,-193.9000,-52.2900,30.3800,999.1291,-0.8320,-9.6043,-1.7987,1590578965,S
115,1874647,-1.0409,-9.2865,-4.0606,35.4900,-32.6900,-34.1600,999.1282,-0.6937,-9.6768,-1.4316,1590578965,S
115,1881364,-1.2945,-7.5374,-3.6227,14.4200,-62.5100,11.9000,999.1277,-2.1238,-9.4463,-1.5581,1590578965,S
116,1885856,-1.5697,-8.4826,-3.8524,23.6600,-46.6200,5.1100,999.1273,-8.5840,-3.5307,-3.1654,1590578965,S
115,1886047,-1.7109,-8.3079,-3.7184,12.3200,-72.8000,-6.6500,999.1279,6.3058,-6.2016,-4.2365,1590578966,S
116,1888336,-1.8114,-9.7005,-4.4841,-8.2600,-103.4600,-14.4900,999.1292,3.0048,-7.5096,-5.5450,1590578966,S
116,1890202,-1.9119,-7.9537,-1.7085,36.1200,-87.9900,23.1000,999.1306,1.5410,-7.8537,-5.6670,1590578966,S
116,1892041,-3.7400,-9.6598,-2.8259,42.2800,-31.1500,51.0300,999.1317,0.5529,-7.8384,-5.8672,1590578966,S
116,1896202,-5.0034,-8.9109,0.0215,20.6500,4.9700,26.2500,999.1332,-0.3362,-7.4505,-6.3677,1590578966,S
116,1895103,-3.2662,-7.6953,1.1486,-7.6300,-53.1300,-31.4300,999.1348,-1.5038,-8.6437,-4.3813,1590578966,S
117,1896373,-0.7537,-8.8319,0.3039,-56.9100,-108.5000,7.4900,999.1357,-2.1542,-9.0626,-3.0658,1590578966,S
116,1898077,-3.5892,-12.0000,-1.8999,30.9400,-10.5000,27.2300,999.1371,-2.2072,-9.3827,-1.8067,1590578966,S
117,1900109,-3.7376,-9.8082,-2.2134,-51.9400,-1.4700,12.0400,999.1386,-2.5758,-9.1814,-2.2885,1590578966,S
116,1903162,-7.6355,-11.0453,-4.7713,83.6500,119.0700,-58.6600,999.1397,-1.7656,-9.5167,-1.5765,1590578966,S
117,1906006,-5.0321,-6.1496,0.0335,143.3600,97.3000,-94.5000,999.1406,-0.7075,-9.7805,-0.1060,1590578967,S
117,1909275,-3.1729,-5.1613,2.3210,62.7900,-13.3000,-11.5500,999.1412,-0.7174,-9.7698,0.4549,1590578967,S
116,1920403,-3.4696,-9.9972,2.1153,-79.1000,-82.4600,54.6700,999.1413,-1.6218,-9.6704,-0.1540,1590578967,S
117,1922108,-3.8046,-13.3807,-0.9141,40.9500,1.8200,30.1000,999.1418,-1.4359,-9.6925,0.4061,1590578967,S
117,1915394,-5.1135,-9.4612,0.8566,46.2000,-15.4000,37.3800,999.1419,-1.3979,-9.6824,0.6837,1590578967,S
117,1915269,-2.9216,-6.0084,1.6367,-3.2200,-66.9200,14.8400,999.1414,-1.1189,-9.7122,0.7695,1590578967,S
117,1919577,-5.0943,-9.4899,1.7396,-3.5000,-72.6600,39.9000,999.1406,-0.1908,-9.7591,0.9456,1590578967,S
118,1923338,-3.7878,-7.9705,1.0552,-18.6200,-20.4400,24.9900,999.1393,-0.1366,-9.7726,0.8048,1590578967,S
117,1927872,-2.9862,-7.6259,2.2038,-12.1100,-0.9800,20.9300,999.1376,-6.8208,-7.0141,0.6700,1590578967,S
117,1930287,-4.0845,-8.1236,1.7731,-10.2200,-6.0200,34.7900,999.1365,-6.0545,-7.6582,0.9304,1590578967,S
117,1932254,-8.4826,-8.7936,1.9310,16.5900,29.8200,100.5200,999.1353,-6.7762,-7.0007,1.1151,1590578968,S
118,1936958,-9.5521,-6.1089,2.6417,32.9000,20.0900,-2.7300,999.1345,-7.2269,-6.5174,1.2106,1590578968,S
118,1946053,-7.8269,-5.5872,2.0985,-11.4100,-26.3200,-2.0300,999.1340,-6.9637,-6.7527,1.4416,1590578968,S
118,1949684,-6.0060,-5.7452,1.9047,-51.4500,-38.9200,-0.1400,999.1339,-6.4923,-7.1919,1.5154,1590578968,S
118,1950776,-7.3125,-6.3338,1.7372,-69.7900,-65.7300,14.9800,999.1336,-5.6540,-7.8842,1.4286,1590578968,S
119,1948894,-7.3412,-8.5232,1.0098,-90.5800,-61.1800,32.9000,999.1333,-5.3376,-8.1430,1.1714,1590578968,S
118,1945844,-8.8080,-8.5926,1.9095,-33.2500,-35.0000,7.1400,999.1333,-5.1000,-8.3140,1.0190,1590578968,S
119,1948173,-6.8148,-6.6353,1.7946,19.5300,-38.0100,-63.9100,999.1336,-4.8003,-8.4517,1.3024,1590578968,S
119,1952215,-6.3697,-8.7506,2.4574,5.8100,-35.4900,-32.6200,999.1333,-4.8674,-8.3654,1.5808,1590578968,S
119,1947721,-4.1444,-6.4798,2.2947,24.8500,-40.6700,-83.6500,999.1334,-4.2977,-8.6164,1.8595,1590578968,S
120,1943009,-3.1083,-7.7886,2.8020,-30.3800,-38.5000,-43.9600,999.1328,-3.7218,-8.9029,1.7485,1590578969,S
119,1936624,-2.2684,-8.5711,4.5344,26.5300,2.3800,-29.1200,999.1327,-3.6149,-8.8553,2.1647,1590578969,S
120,1939631,-2.1990,-8.5448,3.0700,33.7400,14.9100,-30.5900,999.1317,-3.3416,-8.7978,2.7574,1590578969,S
120,1945250,-1.2323,-7.9394,4.0678,-1.0500,0.9100,-17.7100,999.1313,-2.9856,-8.9136,2.7937,1590578969,S
120,1946329,-1.0720,-8.1069,5.0752,9.6600,0.0700,0.2100,999.1296,-2.7027,-8.8762,3.1746,1590578969,S
120,1951587,-1.4237,-7.1761,6.4367,69.9300,14.2100,19.4600,999.1281,-2.7597,-8.4674,4.1059,1590578969,S
121,1958605,-1.3137,-7.0516,6.5922,9.7300,11.5500,33.8800,999.1276,-2.8317,-8.1337,4.6898,1590578969,S
120,1963845,-0.7561,-8.1811,4.9842,12.4600,33.9500,45.5700,999.1258,-2.9993,-7.7751,5.1693,1590578969,S
120,1967131,-4.5823,-9.6144,4.5200,43.6800,87.9200,52.2900,999.1230,-3.2714,-7.5570,5.3255,1590578969,S
121,1968602,-2.5077,-6.5515,3.3811,-98.6300,29.4000,-33.8800,999.1201,-3.0348,-8.3636,4.1245,1590578969,S
121,1968057,-4.2903,-7.3747,1.9693,154.0700,49.9800,-30.1700,999.1178,-3.3544,-7.7077,5.0508,1590578970,S
120,1969382,-6.7119,-4.0439,1.5721,30.3800,70.5600,138.1100,999.1168,-4.9695,-6.8845,4.9069,1590578970,S
121,1974108,-12.2824,-2.5507,1.3280,188.3000,78.1900,49.0700,999.1163,-6.2365,-5.4361,5.2655,1590578970,S
120,1978226,-11.3539,0.7274,-0.5623,108.6400,137.6200,95.4800,999.1166,-7.8567,-4.0738,4.2245,1590578970,S
