0,2424142,-1.3232,-0.0239,9.6814,-2.8000,1.1200,0.4200,999.0157,-1.3280,-0.0240,9.7163,1590578484,N
0,2430052,-1.2778,-0.0383,9.5617,-3.6400,2.0300,0.6300,999.0248,-2.1321,-0.0585,9.5719,1590578484,N
0,2430552,-1.5027,-0.4379,9.7292,0.9100,-1.5400,2.5900,999.0330,-1.5608,-0.1214,9.6809,1590578484,N
0,2430925,-1.3615,-0.2154,9.5761,-0.2800,-0.2100,1.1200,999.0403,-1.5168,-0.1423,9.6876,1590578484,N
0,2147483647,-1.2993,-0.1412,9.7866,-0.5600,-1.3300,1.5400,999.0471,-1.4939,-0.1455,9.6911,1590578485,N
0,2147483647,-1.2299,-0.2417,9.7149,-4.4800,-0.2100,1.7500,999.0532,-1.6041,-0.2038,9.6724,1590578485,N
0,988197,-1.2275,-0.3302,9.6742,-2.3100,3.5700,-0.6300,999.0582,-1.5748,-0.2530,9.6761,1590578485,N
0,1179035,-1.5434,-0.1842,9.9757,2.4500,8.4700,-3.5700,999.0626,-1.5417,-0.2242,9.6821,1590578485,N
0,1182812,-1.4788,-0.1555,9.9446,2.2400,-2.5200,-2.3100,999.0657,-1.4171,-0.1898,9.7019,1590578485,N
0,1883607,-1.4907,-0.1914,9.6000,0.2100,0.3500,-1.4700,999.0686,-1.4236,-0.1898,9.7009,1590578485,N
0,1896027,-1.6439,-0.5838,9.7508,-1.6100,3.5000,-0.2100,999.0710,-1.5575,-0.2821,9.6781,1590578485,N
0,1894375,-1.5386,-0.2560,9.6407,0.8400,-0.5600,-2.5200,999.0734,-1.5193,-0.2711,9.6845,1590578485,N
0,1894117,-1.6056,-0.2130,9.5521,15.3300,0.6300,-3.4300,999.0757,-1.1398,-0.1254,9.7394,1590578485,N
0,1894335,-1.7707,-0.4810,9.5809,1.6800,1.2600,2.3800,999.0767,-1.2855,-0.1804,9.7204,1590578485,N
0,2071344,-1.4046,0.0861,9.5641,-3.0800,-2.3100,-0.2800,999.0778,-1.3134,-0.1503,9.7171,1590578486,N
0,2075024,-1.6487,-0.0263,9.6168,-1.4000,1.1200,0.4900,999.0792,-1.4021,-0.1389,9.7049,1590578486,N
0,2052884,-1.6869,0.0096,9.8393,-1.7500,0.4200,-1.4000,999.0806,-1.4903,-0.1265,9.6919,1590578486,N
0,2052685,-1.6439,0.0024,9.6933,-1.3300,-2.5900,0.9100,999.0819,-1.5596,-0.1112,9.6812,1590578486,N
0,2053052,-1.5817,-0.1795,9.9374,1.6100,-1.1900,0.2100,999.0838,-1.4590,-0.1091,9.6969,1590578486,N
0,2053679,-1.5745,0.0072,9.7579,3.9900,-3.0100,-2.3800,999.0848,-1.1413,-0.0507,9.7399,1590578486,N
0,2054473,-1.5840,-0.1005,9.7196,-0.6300,2.0300,-1.3300,999.0861,-1.2811,-0.0679,9.7224,1590578486,N
0,2054442,-2.1535,0.0311,10.1886,0.9100,-2.0300,-0.0700,999.0869,-1.2213,-0.0419,9.7302,1590578486,N
0,2053827,-1.3711,-0.1723,9.7388,4.6200,-3.0800,1.0500,999.0873,-3.1463,-0.0962,9.2877,1590578486,N
0,2053982,-1.8329,0.0311,9.8297,1.0500,0.1400,-0.9100,999.0871,-3.5986,-0.0753,9.1222,1590578486,N
0,2053912,-1.2921,-0.2297,9.9350,0.2800,2.5900,-5.6700,999.0877,-1.1108,-0.0548,9.7434,1590578487,N
0,2053858,-1.2467,-0.1364,9.2530,-0.9100,-3.6400,0.0700,999.0878,-1.1823,-0.0796,9.7348,1590578487,N
0,2054426,-1.7539,-0.0263,9.7819,-3.0100,0.2100,0.0700,999.0880,-1.4202,-0.0970,9.7028,1590578487,N
0,2053849,-1.5242,-0.1364,9.9063,1.5400,2.1000,0.3500,999.0891,-1.3690,-0.0910,9.7102,1590578487,N
0,2053619,-1.3591,-0.0263,9.6311,-1.5400,-2.5900,0.2100,999.0902,-1.4380,-0.0905,9.7002,1590578487,N
0,2053674,-1.5601,-0.0933,9.7914,-1.1900,2.1700,1.8900,999.0907,-1.5838,-0.1007,9.6774,1590578487,N
0,2053862,-1.5458,-0.2776,9.7651,-0.9800,-1.1200,2.0300,999.0912,-1.6221,-0.1422,9.6705,1590578487,N
0,2054323,-1.1198,-0.2824,9.6263,0.4900,-1.8900,2.9400,999.0917,-1.4536,-0.1667,9.6969,1590578487,N
0,2055079,-1.4237,-0.2728,9.5665,-4.7600,1.8900,4.9000,999.0919,-1.6666,-0.2282,9.6613,1590578487,N
0,2054096,-1.5553,-0.2967,9.7627,5.5300,0.2800,-1.6100,999.0917,-1.4404,-0.1932,9.6984,1590578488,N
0,2054091,-1.5721,-0.0335,9.8034,0.1400,-0.9100,-1.4000,999.0919,-1.4337,-0.1609,9.6999,1590578488,N
0,2054071,-1.6080,-0.2225,9.5641,0.9800,-0.9100,-0.5600,999.0922,-1.4277,-0.1647,9.7008,1590578488,N
0,2054498,-1.5936,-0.3470,9.6670,-3.5700,0.9100,-1.4700,999.0914,-1.5846,-0.2340,9.6749,1590578488,N
0,2055102,-1.4644,-0.3302,9.7795,-2.3800,-1.7500,0.8400,999.0915,-1.6058,-0.2722,9.6705,1590578488,N
0,2055203,-1.5745,-0.3302,9.7196,-1.3300,-2.6600,-0.3500,999.0917,-1.6024,-0.2933,9.6704,1590578488,N
0,2054273,-1.4429,-0.3517,9.7890,2.1700,1.6800,-1.6100,999.0918,-1.5154,-0.2877,9.6846,1590578488,N
0,2054449,-1.5912,-0.3637,9.8178,3.7100,-1.4700,-1.4700,999.0915,-1.4235,-0.2683,9.6991,1590578488,N
0,2054589,-1.5769,-0.3278,9.6766,-0.3500,-0.8400,-1.1900,999.0914,-1.4513,-0.2834,9.6945,1590578488,N
0,2055147,-1.3735,-0.3182,9.6407,0.5600,1.1200,-0.4200,999.0917,-1.4344,-0.2873,9.6969,1590578488,N
0,2055855,-1.3328,-0.4666,9.7986,-1.8900,0.1400,0.3500,999.0926,-1.4503,-0.3399,9.6929,1590578488,N
0,2055591,-1.4166,-0.4834,10.1216,3.4300,-11.0600,-4.0600,999.0933,-1.2617,-0.3243,9.7197,1590578489,N
0,2055231,-1.1916,-0.1842,9.6024,2.2400,-13.2300,-8.5400,999.0939,-1.0720,-0.2665,9.7442,1590578489,N
0,2055018,-1.3615,-0.8518,8.9468,29.8900,-2.3800,-7.1400,999.0942,-2.2700,-0.3689,9.5332,1590578489,N
0,2055813,-1.4022,0.2369,9.8249,6.3700,12.6000,5.0400,999.0953,-3.2306,-0.2870,9.2548,1590578489,N
0,2057830,-0.9356,0.1220,9.8943,-3.2900,2.2400,2.3100,999.0958,-3.1249,-0.1827,9.2937,1590578489,N
0,2059202,-1.3400,-0.0502,9.7579,-2.5200,0.4900,-2.1000,999.0956,-2.7999,-0.1626,9.3971,1590578489,N
0,2058947,-1.5242,0.0263,9.6024,-2.3100,0.2800,-0.4200,999.0956,-0.9146,-0.0457,9.7638,1590578489,N
0,2059438,-1.5075,-0.0981,9.6550,-2.5200,-0.6300,2.8000,999.0951,-1.1338,-0.0774,9.7406,1590578489,N
0,2060064,-1.5434,0.0120,9.9254,-2.6600,3.6400,5.3200,999.0946,-1.3965,-0.0816,9.7064,1590578489,N
0,2060838,-1.3950,-0.0574,9.7364,-0.3500,4.5500,4.9700,999.0947,-1.5236,-0.0773,9.6873,1590578490,N
0,2061843,-1.3902,-0.1938,9.7196,-0.9100,3.5000,3.0800,999.0948,-1.6126,-0.1080,9.6726,1590578490,N
0,2062241,-1.6152,-0.1938,9.7005,-0.9100,0.7700,2.8000,999.0947,-1.6992,-0.1310,9.6574,1590578490,N
0,2061873,-1.9836,0.1005,8.9276,-11.1300,4.9700,8.6100,999.0948,-3.1481,-0.1704,9.2861,1590578490,N
0,2062104,-3.1753,-0.0885,8.2050,-33.7400,7.4200,26.2500,999.0948,-5.9318,-0.2741,7.8044,1590578490,N
0,2061888,-3.4074,-2.0076,7.7240,-98.5600,8.7500,74.2000,999.0951,-6.4191,-0.7208,7.3788,1590578490,N
0,2061985,-5.1230,-3.5007,9.4875,-71.3300,-15.9600,100.1000,999.0950,-6.6420,-0.8427,7.1654,1590578490,N
0,2064629,-0.8806,-1.2084,10.9304,-88.1300,-27.5100,137.7600,999.0952,-6.4000,-0.8917,7.3766,1590578490,N
0,2066912,-4.5200,-6.3099,7.4058,-129.8500,-28.9800,150.3600,999.0958,-6.5570,-1.5476,7.1261,1590578490,N
0,2068046,-3.6419,-7.8963,5.2283,-140.7700,-27.4400,103.1100,999.0975,-6.6544,-2.6057,6.7157,1590578491,N
0,2068592,-2.1440,-7.5637,6.2764,-114.1700,15.7500,35.2800,999.0997,-6.4767,-3.8073,6.3029,1590578491,N
0,2068924,-1.5649,-8.3103,5.7284,-31.8500,5.5300,-34.7900,999.1008,-5.7028,-5.0110,6.2079,1590578491,N
0,2069507,-1.4859,-7.3508,4.1827,-61.0400,-3.2900,-74.5500,999.1024,-5.0052,-6.0924,5.8310,1590578491,N
0,2068255,-3.2112,-13.6128,4.3047,34.3000,24.2900,-124.9500,999.1045,-4.2292,-6.8531,5.5963,1590578491,N
0,2065896,-8.3797,-16.1755,2.7494,-4.3400,17.3600,-107.7300,999.1072,-3.7727,-7.7310,4.7084,1590578491,N
0,2026744,-3.1370,2.4407,-0.3661,-44.5900,-26.5300,100.1700,999.1097,-5.2098,-6.9239,4.5921,1590578491,N
0,2014763,-2.2062,2.6249,-2.1009,31.5700,13.4400,274.3300,999.1138,-7.7297,-4.1958,4.3379,1590578491,N
0,2013078,-11.5645,-27.8261,6.3577,-77.7700,81.8300,112.2100,999.1183,-8.3563,-3.8439,3.4010,1590578491,N
0,2007251,3.0365,-9.6239,4.4841,-54.1800,-86.8700,-180.1100,999.1217,-6.1610,-6.5476,3.9167,1590578491,N
0,2014999,1.8784,-5.8576,2.4885,92.6800,-8.8900,-378.3500,999.1251,-2.7621,-8.5353,3.9611,1590578491,N
0,2030695,-4.1946,-20.6166,2.8666,148.4700,-108.0800,-473.9000,999.1276,-0.5676,-5.0022,8.4158,1590578492,N
0,2022596,1.4524,6.8865,-0.7083,-83.7900,77.2100,213.5000,999.1291,-1.3776,-6.3684,7.3292,1590578492,N
0,2003154,-10.7438,-10.4758,5.1111,-70.2100,142.5200,476.1400,999.1318,-5.1190,-7.3050,4.0746,1590578492,N
0,2016352,-26.8786,-27.5940,7.9202,-94.0100,84.2100,295.3300,999.1346,-7.2701,-5.7539,3.1951,1590578492,N
0,2022002,-2.2612,-18.5683,8.1547,-53.9700,-29.8900,-189.7000,999.1369,-5.2819,-7.7616,2.8337,1590578492,N
0,2013505,1.1462,1.5099,0.9045,-98.5600,-168.4200,-354.6200,999.1375,-1.1591,-9.6227,1.4935,1590578492,N
0,2005225,-0.1149,-7.4919,0.6915,5.0400,-2.8700,-544.8800,999.1394,1.8376,-8.0522,5.2874,1590578492,N
0,2011056,-2.9145,-3.9601,2.0913,-100.2400,42.7000,144.5500,999.1400,0.7122,-9.2856,3.0727,1590578492,N
0,2007112,-7.8006,2.1679,-0.7537,-35.7000,89.2500,585.5500,999.1417,-4.4020,-8.6922,1.1134,1590578492,N
0,2006773,-8.5950,-18.5300,6.7143,19.1100,33.5300,226.8000,999.1434,-6.2357,-7.2880,2.0424,1590578492,N
0,2008220,-1.1174,-22.4447,6.1663,-13.7900,20.7900,-41.0900,999.1445,-5.5013,-7.8969,1.8828,1590578492,N
0,2004891,-5.7882,-7.1330,6.9823,42.4200,-17.9900,-113.4700,999.1454,-4.7191,-8.2287,2.4879,1590578493,N
0,2003406,-5.3384,-9.5521,2.9934,-57.6800,-35.0000,-399.3500,999.1465,-0.8209,-9.7642,0.3969,1590578493,N
0,1994757,1.3113,-8.6764,-0.7896,48.9300,8.4000,-272.3000,999.1473,-0.2095,-9.0000,3.8893,1590578493,N
0,1985119,-6.2357,5.3551,-0.0215,-96.2500,69.6500,439.9500,999.1481,-3.1715,-9.2627,0.5605,1590578493,N
0,1980775,-5.3551,-6.9416,4.7306,151.7600,22.8200,334.8800,999.1496,-6.6811,-6.4703,3.1094,1590578493,N
0,1994665,-8.4993,-26.4814,8.5519,-71.1900,-94.9900,7.0700,999.1499,-5.9383,-7.1338,3.1648,1590578493,N
0,1993493,0.2728,-9.0305,5.1039,-79.5900,-48.8600,-60.6200,999.1499,-4.2653,-8.1939,3.2920,1590578493,N
0,1985153,10.9256,9.1286,-3.1370,88.7600,189.4900,18.5500,999.1492,-5.0058,-7.8076,3.1866,1590578493,N
0,2002297,-7.5446,-13.9813,0.0239,54.8800,86.8000,26.5300,999.1489,-5.7191,-7.4538,2.8112,1590578493,N
0,2003600,-30.2716,-3.0580,-0.5671,120.3300,112.0000,191.7300,999.1481,-8.3372,-4.5560,2.4300,1590578493,N
0,2007917,6.2070,-7.6977,2.5675,-22.6100,8.4000,24.7800,999.1475,-6.8223,-6.3204,3.1112,1590578494,N
0,2018310,-8.3533,-1.2156,-5.1063,-513.1000,-8.1900,-30.6600,999.1492,-4.0370,-8.5484,-2.6072,1590578494,N
0,2021252,-15.0197,-5.6853,4.5176,31.9900,5.2500,-33.7400,999.1525,-4.0109,-8.7878,-1.6905,1590578494,N
0,2021214,-1.7659,-3.2901,-0.0526,-101.5000,-35.0700,51.6600,999.1553,-4.1548,-8.6146,-2.1671,1590578494,N
0,2023306,0.7442,-4.9962,-0.1651,-4.9000,29.2600,-24.8500,999.1603,-2.8038,-9.1263,-2.2406,1590578494,N
0,2032055,-17.5155,-9.7436,2.4168,75.3200,15.0500,-61.6000,999.1649,-2.4552,-9.3915,-1.3934,1590578494,N
0,2038804,-7.9179,-14.5436,-4.3717,-8.8900,-22.4000,62.0900,999.1685,-2.8550,-9.2727,-1.4271,1590578494,N
0,2037962,0.5216,2.0985,-0.7274,124.6000,38.7800,25.5500,999.1722,-4.2806,-8.7792,-0.8794,1590578494,N
0,2039849,-14.3521,-6.1567,0.0455,-171.4300,45.3600,-8.1200,999.1755,-8.8004,-4.1560,-1.2045,1590578494,N
0,2039234,-25.5530,-3.8644,2.6465,128.1000,-85.2600,-65.5200,999.1793,-3.6441,-9.0888,-0.5339,1590578494,N
0,2030331,6.4223,-7.7743,-0.8542,7.4200,-12.4600,-10.9900,999.1814,-1.7978,-9.6245,-0.5543,1590578495,N
0,2027694,2.9312,2.7135,-0.8088,43.6100,-4.1300,-51.4500,999.1852,-0.8822,-9.7537,-0.5066,1590578495,N
0,2035819,-21.4756,-9.2794,3.0437,-55.5800,-25.2700,27.9300,999.1873,-1.6154,-9.6493,-0.6729,1590578495,N
0,2034774,-5.4915,-6.9057,0.5480,-298.6900,-158.4100,19.5300,999.1882,-1.4869,-9.3890,-2.4097,1590578495,N
0,2029664,8.9850,2.0100,-1.5936,106.9600,-137.6200,-72.3100,999.1881,-0.0054,-9.3579,-2.9325,1590578495,N
0,2033297,-17.5705,-11.1290,3.1370,222.5300,66.9900,55.6500,999.1880,-2.1296,-9.5720,-0.1104,1590578495,N
0,2036673,-13.0959,-12.0455,9.2195,61.9500,131.1800,78.6100,999.1878,-3.9135,-8.9576,0.7851,1590578495,N
0,2034570,-2.4335,-6.6138,0.3661,80.5000,22.1200,-22.6100,999.1871,-4.6275,-8.5430,1.3320,1590578495,N
0,2030657,-19.3579,-6.7310,0.5815,-66.4300,49.5600,-43.0500,999.1872,-3.7964,-9.0271,0.5187,1590578495,N
0,2022192,-16.6947,-14.5149,-1.5817,-17.0100,-55.0200,18.6200,999.1862,-3.6483,-9.0922,0.4390,1590578495,N
0,2018010,3.2088,5.3456,2.0076,8.3300,-77.7700,46.6200,999.1857,-4.5868,-8.5334,1.5210,1590578496,N
0,2019725,-5.4580,0.8758,1.5505,-11.6200,-87.7100,-75.1100,999.1860,-4.7537,-8.2490,2.3509,1590578496,N
0,2023405,-11.6243,-13.3807,9.3224,-18.6900,-161.0000,-56.8400,999.1865,-3.9229,-8.4751,2.9922,1590578496,N
0,2024913,-3.1657,-5.3815,2.5914,-84.2100,-40.2500,85.8200,999.1860,-4.3347,-8.3295,2.8285,1590578496,N
0,2025297,-3.4265,-5.2427,3.1155,-17.7800,105.0000,78.1900,999.1852,-5.1380,-7.9474,2.5709,1590578496,N
0,2028675,2.5723,-0.7513,-0.2489,88.4800,109.6200,18.2000,999.1846,-5.1359,-7.9608,2.5334,1590578496,N
0,2034436,-16.0223,-13.1031,1.0911,-32.2700,91.3500,10.1500,999.1841,-5.4540,-7.9660,1.7226,1590578496,N
0,2028802,-22.1360,-9.8919,2.4981,18.6900,18.4800,-21.5600,999.1839,-5.8212,-7.6933,1.7599,1590578496,N
0,2020099,0.9882,-5.9486,-0.8806,62.7200,11.7600,-7.2100,999.1840,-5.8943,-7.6370,1.7616,1590578496,N
0,2020696,-4.9555,6.6425,-0.4283,18.6900,-54.1100,24.9900,999.1846,-6.8182,-6.7071,2.1673,1590578496,N
0,2033666,-14.7518,-14.0148,4.3238,-70.6300,-37.1000,-2.1000,999.1862,-6.1302,-7.4145,1.9016,1590578497,N
0,2055758,-7.9250,-7.5924,0.6556,14.9800,-14.7000,36.6100,999.1876,-6.4845,-7.0959,1.9418,1590578497,N
0,2049904,2.2899,1.1270,6.1065,45.0100,10.0800,-28.1400,999.1885,-6.3393,-6.8024,3.1162,1590578497,N
0,2047610,-18.2477,-4.4052,1.1988,-58.5900,-81.2700,-41.4400,999.1888,-5.7091,-7.4010,2.9668,1590578497,N
104,2040531,-11.8899,-10.0905,-5.6853,-63.9100,-98.7700,-3.2200,999.1884,-5.0815,-8.0893,2.2165,1590578497,N
104,2037207,6.6401,1.3304,0.1029,-4.0600,-27.7900,-3.2200,999.1863,-4.4716,-8.3327,2.5964,1590578497,N
103,2039012,-11.5071,-11.0453,5.5896,-73.6400,6.0900,-22.2600,999.1840,-4.2332,-8.6152,2.0072,1590578497,N
103,2033156,-10.4710,-19.4489,4.1133,40.9500,5.0400,-80.1500,999.1843,-3.7220,-8.8304,2.0836,1590578497,N
103,2024782,6.0826,-0.2584,2.1583,56.7000,20.7900,-81.5500,999.1846,-2.6297,-8.9862,2.9162,1590578497,N
103,2026574,3.8812,0.7633,1.3902,133.4200,53.3400,-106.1900,999.1840,-3.7351,-2.7016,8.6557,1590578498,N
102,2023098,-20.1212,-24.4738,-0.6269,151.4800,-9.6600,-228.9700,999.1838,-3.9848,-1.0806,8.8952,1590578498,N
103,2019240,1.4883,6.5850,-0.3972,-7.7000,-14.5600,171.0800,999.1826,-3.5956,-0.0287,9.1237,1590578498,N
102,2016643,0.2345,-0.3470,-0.2632,-56.6300,43.5400,288.6800,999.1815,-3.7196,-7.4060,5.2427,1590578498,N
102,2022834,-7.4943,-31.4010,9.4134,-165.6200,-84.5600,-45.3600,999.1813,-2.4495,-8.6906,3.8268,1590578498,N
102,2020618,-1.7635,-10.1671,5.5178,81.4100,6.5800,-235.2000,999.1807,-2.7008,-3.9596,8.5556,1590578498,N
102,2018317,-1.5482,-3.0556,2.8187,65.1000,-25.6200,-348.8800,999.1787,-1.6818,-3.5944,8.9679,1590578498,N
103,2017608,1.9645,-10.8802,-1.9502,309.0500,-92.7500,-255.7800,999.1770,-0.4734,-1.9943,9.5901,1590578498,N
102,2015075,-2.7087,-5.1350,1.7444,-73.2900,68.3200,438.2000,999.1749,-2.5946,-0.9020,9.4141,1590578498,N
103,2012864,-9.6694,-3.9721,0.9260,-237.2300,163.8700,476.7700,999.1724,-5.9923,-6.7620,3.8127,1590578498,N
103,2013990,-29.4772,-15.0724,4.5296,-88.9000,158.9000,204.3300,999.1696,-8.0928,-5.0995,2.1615,1590578498,N
103,2014683,-7.7360,-20.1452,6.3984,-90.0200,-81.9000,-134.9600,999.1672,-5.9223,-7.5124,2.1590,1590578499,N
105,2008149,7.3460,-6.8889,3.9577,-106.4700,-25.8300,-268.1700,999.1652,-1.8899,-9.5801,0.9059,1590578499,N
104,2010558,-10.6911,-23.8732,1.0648,60.9000,22.0500,-628.3900,999.1620,-1.2342,-8.2943,5.0845,1590578499,N
105,2013018,-2.0841,-5.7452,-0.4164,162.4700,-71.9600,-310.8700,999.1604,-2.3506,-6.3221,7.1187,1590578499,N
105,2007491,-11.2415,1.3998,1.6845,62.3000,95.1300,639.4500,999.1572,-3.6177,-8.4257,3.4772,1590578499,N
105,2011909,-14.8427,-8.9085,2.9767,-3.5000,135.8700,517.5800,999.1553,-8.5894,-4.2539,2.0731,1590578499,N
105,2015516,-44.8726,-18.3817,4.3238,-199.9900,233.3800,303.9400,999.1542,-8.2640,-5.2729,-0.2713,1590578499,N
105,2018728,-2.0961,-15.2997,13.0241,-324.6600,34.4400,29.1200,999.1522,-9.4232,-2.4707,-1.1264,1590578499,N
105,2011747,10.4614,-19.4106,3.8453,-56.1400,-22.4000,-379.1900,999.1512,-7.5471,-6.1096,-1.3729,1590578499,N
107,2016297,-30.0395,-36.8686,2.0339,82.1800,24.2900,-839.7200,999.1505,-7.2318,-6.0198,-2.7630,1590578500,N
106,2016663,-21.3966,0.9787,-2.3833,180.2500,60.2700,-237.3000,999.1497,3.1989,-9.2386,-0.7649,1590578500,N
107,2014825,-13.1151,7.0516,-2.1703,-179.1300,155.0500,696.3600,999.1509,-3.7862,-8.7391,-2.3374,1590578500,N
106,2013936,-14.9025,-13.3926,3.0987,275.1000,221.7600,556.2200,999.1533,-6.6892,-6.8808,-2.0196,1590578500,N
106,2013851,-34.0810,-8.5256,5.9868,9.8000,113.5400,178.8500,999.1544,-7.7268,-5.3308,-2.8373,1590578500,N
106,2009415,-8.0255,-16.3908,2.8546,-90.1600,-11.9000,-101.7100,999.1564,-6.8790,-6.5800,-2.3565,1590578500,N
105,2008484,-0.9284,-13.4716,5.7380,-34.5100,-34.3700,-394.8700,999.1578,-2.9912,-9.3212,-0.5806,1590578500,N
106,2015167,-17.0632,-22.5021,-0.2154,72.7300,-39.1300,-884.8000,999.1594,3.7111,-9.0442,-0.7756,1590578500,N
106,2016722,-12.9547,8.7266,-2.2756,16.8700,227.2200,-107.8000,999.1591,3.3943,-8.6650,-3.0930,1590578500,N
106,2014055,-29.5131,7.6475,-8.2193,-260.0500,-2.2400,990.0100,999.1593,-5.0878,-7.5921,-3.5561,1590578500,N
105,2006875,-35.4162,-10.1575,-4.7450,-223.7200,90.5100,474.1100,999.1599,-8.0421,-2.7869,-4.8711,1590578501,N
105,2013453,-21.1526,-23.9258,5.1805,-367.4300,96.6700,72.9400,999.1581,-7.9518,-0.9990,-5.6516,1590578501,N
105,2013935,0.9835,-16.1707,7.5278,-123.6900,-46.3400,-206.3600,999.1566,-6.1268,-2.5068,-7.2352,1590578501,N
104,2014375,-14.0937,-22.7629,2.2493,-3.9200,-70.2800,-669.8300,999.1552,-4.8305,2.8300,-8.0516,1590578501,N
104,2015623,-23.1123,-16.9747,-2.3282,295.3300,-41.3000,-779.7300,999.1536,-5.6378,-3.5230,-7.2093,1590578501,N
104,2019054,-11.8349,26.3210,-3.1633,39.9700,275.8700,656.3200,999.1521,-3.3278,-3.0426,-8.7085,1590578501,N
103,2009189,-50.6872,-10.4853,-7.1210,286.3700,260.6800,1043.7700,999.1520,-6.8957,-4.2641,-5.5170,1590578501,N
104,1988821,-27.4433,2.6321,15.0580,5.7400,296.0300,-43.4000,999.1536,-5.1281,-5.5695,-6.2333,1590578501,N
104,1995712,-16.5177,-4.3717,15.4409,-90.6500,0.0700,-110.3900,999.1565,-4.9078,-5.9427,-6.0636,1590578501,N
104,2002875,-0.8782,-6.8698,2.1129,-166.5300,-165.5500,-300.7900,999.1586,-4.1493,-7.0516,-5.4063,1590578501,N
105,2002073,-2.7039,0.5791,-7.8700,239.8900,-1.0500,-254.7300,999.1614,-2.7129,-8.8390,-3.2684,1590578502,N
104,2010470,-22.5356,-6.5180,-6.2477,161.9100,116.9700,-92.1200,999.1620,-2.0618,-9.3201,-2.2482,1590578502,N
106,2016779,-19.2598,-6.4199,6.3123,53.4800,161.5600,187.1800,999.1632,-3.5649,-8.7173,-2.7333,1590578502,N
105,2016316,8.1858,2.0937,-0.7537,153.0200,39.2700,65.5900,999.1658,-3.9107,-8.9815,-0.4573,1590578502,N
106,2024988,-6.8674,0.2489,2.6489,79.6600,20.8600,-58.8700,999.1691,-3.9952,-8.7166,2.0565,1590578502,N
106,2027382,-28.4387,-12.4594,9.3368,-99.7500,14.9800,30.3800,999.1708,-4.3651,-8.7816,-0.0124,1590578502,N
106,2030115,-0.3685,-2.0171,-1.9334,-73.9200,-29.4700,-54.2500,999.1730,-3.4817,-8.9962,-1.7652,1590578502,N
105,2027431,2.1535,3.0293,0.8518,36.6100,18.5500,29.4700,999.1748,-3.8378,-8.9994,-0.6730,1590578502,N
105,2045853,-22.8969,-8.5591,3.6060,4.4800,27.3700,44.9400,999.1757,-4.3816,-8.7210,-0.9570,1590578502,N
105,2055921,-5.2810,-19.9226,-2.9240,-33.8100,-25.9700,-15.1900,999.1771,-4.0035,-8.8127,-1.5742,1590578502,N
104,2049583,-0.6867,2.9958,0.3398,100.3800,-3.4300,-60.4800,999.1785,-4.0581,-8.8812,0.9097,1590578503,N
104,2056487,-11.6770,3.2518,3.5509,19.6700,-17.0800,81.2700,999.1802,-5.2955,-8.0248,1.9314,1590578503,N
104,2065185,-16.9029,-18.5396,3.2614,-117.3200,-7.1400,-3.8500,999.1829,-5.1769,-8.3251,0.2496,1590578503,N
104,2056375,0.1460,-1.7779,0.0670,42.3500,10.9200,-15.8200,999.1849,-4.4037,-8.7517,0.4311,1590578503,N
103,2057234,3.3428,-6.5420,2.3115,-51.3100,8.8200,-6.9300,999.1858,-3.7539,-9.0547,-0.3026,1590578503,N
103,2075257,-24.9547,-10.4447,-0.2201,9.8000,-0.9100,97.0900,999.1858,-4.7916,-8.5214,-0.7722,1590578503,N
103,2071662,3.0987,-7.2503,-0.0167,38.0100,-49.2100,3.1500,999.1854,-4.1510,-8.8698,-0.5163,1590578503,N
103,2073020,-1.5003,4.4172,4.1635,13.3000,-54.2500,34.2300,999.1842,-5.0596,-8.3799,0.5893,1590578503,N
103,2084280,-25.3807,-14.3976,1.7252,20.5100,-4.8300,-37.7300,999.1843,-4.6514,-8.5838,0.9238,1590578503,N
103,2088714,-2.9169,-6.6664,1.7635,-48.5800,-71.3300,-11.5500,999.1844,-4.0110,-8.8867,1.0529,1590578503,N
103,2088287,3.8213,-0.7920,-0.5815,-3.4300,67.1300,27.7900,999.1840,-4.1234,-8.8951,-0.2144,1590578504,N
103,2085456,-15.1561,-6.4822,-2.3474,-27.3700,79.5200,-19.8100,999.1847,-4.3904,-8.6913,-1.1647,1590578504,N
104,2085346,-14.4024,-11.7344,-1.3711,-199.7100,-61.5300,82.1800,999.1859,-5.7853,-7.4203,-2.7642,1590578504,N
103,2079723,4.4483,-1.1605,4.4626,158.7600,-19.3900,-16.0300,999.1866,-4.1562,-8.8805,-0.1832,1590578504,N
103,2086447,-21.8919,0.8614,-1.9214,124.6000,39.9000,-37.3800,999.1876,-3.8544,-8.9885,0.7211,1590578504,N
104,2086025,-21.5115,-10.5500,7.3220,-3.9900,22.6800,33.9500,999.1881,-4.3057,-8.7839,0.6879,1590578504,N
104,2089445,3.8070,1.9071,-0.0215,247.0300,55.7200,-81.7600,999.1879,-1.9614,-8.4345,4.6025,1590578504,N
104,2102048,2.3641,-2.6512,1.2658,59.7800,39.2000,-86.4500,999.1879,-0.4992,-8.3805,5.0683,1590578504,N
105,2112014,-24.5599,-10.3777,-2.0267,12.3900,26.8800,38.5000,999.1880,-1.3584,-8.6561,4.4042,1590578504,N
104,2098916,-4.2999,-8.0566,1.4764,-47.1100,-56.2100,8.8900,999.1865,-1.1396,-9.1345,3.3812,1590578504,N
105,2099149,-3.2901,2.4694,0.2489,133.7000,59.1500,5.6700,999.1842,-1.0637,-8.0244,5.5360,1590578505,N
106,2094712,-21.8297,-15.4265,1.7946,-82.3900,22.2600,-6.5800,999.1840,-1.8333,-8.7369,4.0591,1590578505,N
105,2081416,-8.5831,-5.0441,7.0660,30.9400,-40.8800,-28.4200,999.1843,-1.1764,-8.5704,4.6190,1590578505,N
106,2082264,2.2828,-0.0072,0.1077,89.2500,-25.1300,-55.3000,999.1841,1.0678,-7.7977,5.8503,1590578505,N
106,2086722,-6.6999,-7.2407,-6.6975,39.7600,45.7800,11.3400,999.1854,0.2694,-8.0816,5.5484,1590578505,N
106,2092983,-23.2056,-10.7605,2.9527,-184.7300,70.1400,74.0600,999.1850,-2.2332,-9.0760,2.9681,1590578505,N
106,2089444,-0.8518,-5.7763,11.2893,-109.3400,-20.2300,41.1600,999.1848,-2.1757,-9.2440,2.4466,1590578505,N
106,2094046,-24.0981,-6.8842,-1.2036,15.5400,43.2600,-81.2000,999.1858,-1.7630,-9.3676,2.3044,1590578505,N
106,2086267,-5.8672,-20.8941,3.7184,-175.4900,-111.0900,-53.5500,999.1866,-1.0358,-9.6951,1.0500,1590578505,N
106,2078365,1.3400,4.7569,-2.0459,128.3100,44.9400,0.2800,999.1862,-1.2456,-9.5077,2.0549,1590578505,N
106,2077381,-2.8762,-2.4024,-0.3135,-97.7200,13.7200,-26.6000,999.1883,-2.0251,-9.5638,0.7769,1590578506,N
105,2077690,-19.9609,-27.8907,0.8423,-269.7100,-35.4200,-10.6400,999.1898,-4.9571,-8.2977,-1.6569,1590578506,N
106,2078940,6.1878,5.2187,-0.7490,141.6100,10.1500,-23.5200,999.1902,-2.5927,-9.4499,-0.3833,1590578506,N
105,2082171,-10.1121,-2.2851,-0.5216,-125.8600,-1.1900,66.7800,999.1904,-5.7761,-7.7282,-1.7555,1590578506,N
106,2092163,-21.1884,-9.5234,12.1914,-51.3100,10.1500,32.7600,999.1915,-6.4561,-7.2004,-1.6255,1590578506,N
105,2086651,-1.6080,-4.9747,-3.0867,9.0300,-74.5500,-26.8800,999.1913,-6.2896,-7.3472,-1.6219,1590578506,N
105,2075236,4.2640,-5.2379,-0.2058,30.5200,9.0300,63.4200,999.1904,-5.4870,-7.9894,-1.4941,1590578506,N
106,2078956,-34.0786,-5.4963,0.5456,66.9900,23.5200,-57.6800,999.1893,-4.3183,-8.7676,-0.8073,1590578506,N
105,2068155,-13.4788,-13.3304,-3.8501,-487.5500,-151.8300,49.4200,999.1885,-7.9784,-5.0170,-2.7102,1590578506,N
105,2067350,0.5862,-2.0506,-1.9454,-88.2000,-21.4200,33.6700,999.1871,-7.4768,-5.1571,-3.6976,1590578506,N
105,2066499,-21.4086,-8.4251,3.1825,-63.9100,70.0000,25.5500,999.1870,-7.5205,-4.8351,-4.0292,1590578507,N
106,2058562,-8.0303,-14.4000,0.8662,-48.0900,-29.4000,-49.5600,999.1876,-7.4127,-5.2779,-3.6560,1590578507,N
105,2056045,13.5075,-3.7519,1.8042,-48.5100,-14.7700,-96.4600,999.1883,-6.2475,-6.5637,-3.7492,1590578507,N
106,2058232,5.1350,-2.5938,2.1559,189.4900,25.5500,-150.2900,999.1893,-8.2193,-1.8975,-5.0013,1590578507,N
106,2047046,-29.4724,-39.1250,0.3685,211.4700,-34.8600,-670.6700,999.1898,-5.7272,-7.8221,-1.4777,1590578507,N
106,2032426,-7.6044,33.0903,-4.8000,211.6800,-175.9100,-24.5000,999.1888,-8.2042,-3.8624,3.7341,1590578507,N
106,2028897,-8.2002,6.0108,-3.1657,123.6900,185.0800,560.7000,999.1877,7.6708,-1.2971,5.9705,1590578507,N
106,2051251,-38.5197,-37.8808,8.1930,-36.4700,44.1000,211.0500,999.1914,0.8059,-9.4732,2.4040,1590578507,N
106,2055631,1.9143,-11.9426,2.2158,-87.9200,-166.7400,30.7300,999.1927,-5.4372,-7.9853,1.6863,1590578507,N
106,2046298,11.9450,-3.5198,3.4337,-64.8200,9.4500,-70.7000,999.1938,-3.4042,-9.0673,1.5383,1590578507,N
106,2046747,-2.9288,-18.6162,3.6467,25.6200,-13.3700,-312.1300,999.1951,-6.0675,-5.7813,5.0924,1590578508,N
106,2047516,-24.9117,-20.6309,-2.4503,161.2800,-189.2800,-444.9200,999.1956,-3.6288,-4.9430,7.6530,1590578508,N
106,2043671,5.7165,28.2688,-1.9980,75.7400,-1.2600,196.9800,999.1941,-4.2586,-3.0701,8.2831,1590578508,N
106,2026318,0.7274,7.7408,-1.6726,159.6000,51.8000,454.5800,999.1914,-5.5719,1.9993,7.8184,1590578508,N
105,2036887,-43.2790,-46.6959,7.8724,-268.3800,-29.7500,182.0000,999.1913,-4.6527,-7.8783,3.5292,1590578508,N
105,2026338,6.3147,-4.2736,2.2445,-21.8400,-107.2400,-74.2000,999.1913,-2.1654,-8.9051,3.4901,1590578508,N
105,2027993,22.0044,3.0413,-5.9318,-103.5300,32.4100,-261.1700,999.1904,-2.0236,-7.0512,6.5081,1590578508,N
105,2033083,5.0106,-10.7151,-0.1436,112.0000,162.8900,-153.6500,999.1895,-4.2265,-5.3262,7.0667,1590578508,N
104,2032662,-9.7340,-17.7308,4.3789,-110.2500,-37.8700,-348.1100,999.1882,-1.6609,-7.4527,6.1538,1590578508,N
105,2027366,3.0413,30.2788,1.6104,45.2200,-3.2900,150.9900,999.1869,-1.8769,-6.4451,7.1490,1590578508,N
104,1954204,2.8570,9.0592,-0.0048,605.5700,28.6300,487.6900,999.1905,-7.3872,6.4477,0.1637,1590578509,N
104,1955403,-33.8752,-41.7547,7.3292,-82.8800,26.8100,30.5900,999.1917,-4.3068,3.2432,8.1917,1590578509,N
104,1958989,14.5388,0.5886,1.7204,14.9100,-9.3100,-105.0700,999.1902,-4.2066,2.4965,8.4996,1590578509,N
104,1958565,11.8421,6.1137,-0.9523,106.4700,73.9200,-230.0200,999.1887,-8.6256,2.9696,3.5987,1590578509,N
104,1962180,-64.5273,-78.2860,-5.3145,-10.2900,261.3100,-362.3200,999.1866,-8.0671,0.2973,5.5681,1590578509,N
104,1954462,-8.8415,3.6514,-2.8738,77.5600,-27.8600,-143.8500,999.1835,-7.4181,0.1624,6.4122,1590578509,N
105,3266907,-7.0349,-3.6371,-5.1805,441.6300,-276.3600,248.1500,999.1800,-0.8614,8.5721,4.6848,1590578509,N
104,2002486,0.7633,-44.0590,-1.9573,-25.7600,-81.7600,-45.2900,999.1782,-0.9751,8.0616,5.4982,1590578509,N
105,1977945,4.3525,-16.3406,3.1131,54.3900,75.3900,-283.0100,999.1722,-0.3101,8.3657,5.1078,1590578509,N
105,1976739,-3.4576,-5.0034,-0.2489,-139.2300,97.3700,-136.6400,999.1664,-6.1327,5.1203,5.6871,1590578509,N
105,1974100,-9.5856,-32.0566,-4.6062,-148.0500,-18.4800,-102.5500,999.1626,-7.0624,2.1576,6.4527,1590578510,N
105,1970977,14.4742,-14.1847,1.1198,-28.8400,-35.5600,-12.6000,999.1605,-6.0492,2.1210,7.4215,1590578510,N
105,2010286,4.4794,-5.7308,0.5575,40.9500,-16.0300,0.0700,999.1597,-5.0753,2.5518,7.9938,1590578510,N
105,2032203,3.4433,3.2112,0.5240,81.5500,-35.0700,-27.3000,999.1583,-3.1514,4.1546,8.3053,1590578510,N
106,1988273,16.3860,-9.3966,3.1968,1.1900,17.5000,-29.6800,999.1569,-2.8759,3.7063,8.6118,1590578510,N
106,1973314,10.1862,-9.1956,4.9842,51.0300,-24.1500,-13.8600,999.1555,-1.2547,3.8020,8.9521,1590578510,N
105,1946336,3.8740,2.6919,-0.1436,-35.0000,-18.4100,-11.1300,999.1542,-0.0840,4.0846,8.9151,1590578510,N
105,1958070,6.3290,-1.4070,3.2662,-51.7300,66.9200,-62.4400,999.1525,-0.5643,2.9576,9.3330,1590578510,N
106,1951337,12.3063,-9.7699,4.5775,-7.8400,15.7500,27.0200,999.1514,0.3908,2.3372,9.5161,1590578510,N
106,1970309,10.3825,-4.8838,-0.8830,82.6000,-73.7100,102.9000,999.1512,3.2486,2.2966,8.9634,1590578510,N
105,1977103,1.9502,0.2441,3.2495,90.2300,-20.1600,0.7000,999.1504,4.0784,2.6220,8.5242,1590578511,N
106,1975105,17.9342,-7.1713,4.3884,46.6200,-11.5500,-11.9000,999.1495,4.8923,2.3786,8.1595,1590578511,N
106,1993600,1.5194,-5.9629,4.5679,149.0300,19.9500,111.5800,999.1486,5.4560,1.8718,7.9309,1590578511,N
104,1988117,5.0058,1.6271,0.9452,-65.1700,-1.1200,17.9200,999.1473,6.2747,1.4642,7.3929,1590578511,N
105,1982935,2.3952,-10.5835,5.2881,-2.5900,55.5800,-215.8100,999.1455,5.3818,1.9572,7.9609,1590578511,N
105,1981841,13.1127,-10.1360,-0.0311,-91.2100,53.2700,275.0300,999.1434,5.2092,-0.6497,8.2833,1590578511,N
103,1981706,-5.3815,-0.9356,0.6485,-21.2800,86.6600,421.6100,999.1414,-2.0752,5.7422,7.6741,1590578511,N
106,1979893,1.2132,-3.0437,3.4600,41.8600,-5.1100,195.2300,999.1409,-1.2127,-4.8825,8.4179,1590578511,N
106,1979346,0.3589,-28.3526,7.5852,-56.3500,-19.9500,12.2500,999.1415,-0.1995,-1.5523,9.6810,1590578511,N
105,1979458,1.0098,-11.1218,5.0058,40.5300,-20.1600,-187.8800,999.1424,0.3437,-1.7714,9.6392,1590578511,N
106,1978786,-1.2395,-1.0361,2.4598,38.5700,1.8900,-281.8200,999.1430,0.1390,-0.8511,9.7687,1590578511,N
106,1977178,0.7705,-10.6983,0.6915,155.5400,-12.6000,-334.8100,999.1446,1.5722,-1.1807,9.6075,1590578512,N
105,1974576,3.7591,-10.3992,2.6297,-160.3000,-13.5100,321.1600,999.1454,2.0946,-4.8807,8.2439,1590578512,N
107,1973659,-2.0148,-3.7352,2.4742,4.2700,5.6000,390.3200,999.1467,0.3669,-2.2877,9.5290,1590578512,N
106,1975000,-0.7705,-10.1527,3.8166,19.6700,37.7300,113.3300,999.1480,-0.6036,-3.4699,9.1524,1590578512,N
107,1977550,2.5149,-22.9807,6.6951,-51.4500,14.9800,-66.5700,999.1483,-0.3987,-4.1714,8.8663,1590578512,N
106,1975898,-1.7061,-12.6269,3.9171,82.6700,-3.5000,-297.0100,999.1490,0.4213,-4.4422,8.7327,1590578512,N
106,1974900,-3.8596,-1.1557,1.3496,60.6900,-29.4700,-390.8800,999.1503,1.1576,-3.4327,9.1130,1590578512,N
106,1974009,6.4032,-8.1523,0.4738,151.2000,15.3300,-243.1800,999.1511,3.3216,-3.3299,8.6052,1590578512,N
106,1972466,3.1944,-3.3523,1.5817,-67.9000,59.4300,398.7200,999.1520,1.8065,-5.3490,8.0184,1590578512,N
106,1970889,-12.4929,-2.5340,0.0359,-130.4100,80.4300,584.7100,999.1524,-2.7272,-6.0691,7.2041,1590578513,N
106,1970974,-15.2734,-10.5332,2.5220,-115.2900,39.6900,430.0800,999.1530,-5.9138,-5.0021,6.0147,1590578513,N
106,1972900,-21.0760,-21.6479,5.8385,-86.3800,4.1300,30.6600,999.1527,-6.3032,-5.3680,5.2559,1590578513,N
106,1972166,6.2572,-5.9797,0.5480,-36.8900,-45.3600,-197.1900,999.1525,-4.1031,-7.2610,5.1587,1590578513,N
106,1971359,5.3599,2.3402,-4.1420,144.8300,68.1800,-113.8200,999.1524,-3.1129,-7.3642,5.6787,1590578513,N
106,1977308,-24.6868,-16.8407,-5.7882,160.3000,158.2000,54.4600,999.1533,-4.7371,-6.6890,5.3840,1590578513,N
105,1983988,-11.1769,-0.5240,2.4263,-18.0600,21.7700,98.7000,999.1537,-6.0771,-5.5931,5.2875,1590578513,N
105,1985177,4.4961,-6.6832,0.0574,176.9600,45.9200,-6.6500,999.1543,-5.4191,-5.3348,6.1923,1590578513,N
105,1988756,-15.7256,-7.8915,5.3862,-231.8400,18.6900,-83.7900,999.1581,-5.2138,-7.1274,4.2646,1590578513,N
104,1990734,-17.2690,-15.9218,-0.8279,13.0900,-11.3400,-53.9000,999.1615,-4.9774,-7.4903,3.9103,1590578513,N
105,1986176,4.4172,0.9930,-1.1868,-4.4800,1.9600,2.4500,999.1654,-4.2701,-8.0574,3.6076,1590578514,N
105,1994155,-2.1918,-2.0219,0.9093,24.4300,30.0300,30.3800,999.1696,-4.9429,-7.6324,3.6720,1590578514,N
105,2004632,-15.1490,-13.5266,-0.5145,17.8500,21.0000,26.1800,999.1746,-5.4658,-7.4027,3.3905,1590578514,N
105,2010330,-2.6321,-6.8770,-1.0241,98.7700,16.3800,-24.3600,999.1785,-5.7105,-7.2331,3.3531,1590578514,N
105,2015428,-0.7346,3.8812,0.0909,212.8000,62.4400,-33.8100,999.1815,-6.8289,-5.3658,4.5546,1590578514,N
106,2024742,-16.4315,-8.8128,4.2377,-80.2200,29.5400,18.8300,999.1848,-7.2621,-5.4821,3.6577,1590578514,N
106,2030671,-14.0076,-10.6863,2.4168,-39.2700,-6.5800,-34.9300,999.1874,-7.0857,-5.9440,3.2607,1590578514,N
106,2032313,1.9597,1.1127,6.6377,20.1600,-14.0000,-40.9500,999.1888,-6.0613,-6.2912,4.4556,1590578514,N
106,2030132,-0.3135,0.9811,-6.6114,82.3200,23.1000,2.1000,999.1904,-7.1597,-5.4318,3.9249,1590578514,N
106,2031791,-25.3807,-10.3514,9.9350,-12.9500,71.0500,99.3300,999.1921,-8.2250,-4.4019,3.0237,1590578514,N
106,2017816,3.2088,-3.0604,-0.7059,-5.3900,-55.5800,-34.2300,999.1931,-7.1461,-5.7649,3.4453,1590578515,N
105,2014909,-5.8863,3.7137,3.7376,36.4700,-14.9800,6.2300,999.1945,-7.5007,-4.7297,4.1881,1590578515,N
106,2019363,-20.0207,-17.8959,2.0483,-32.5500,-19.8800,-44.5900,999.1954,-7.2087,-5.3704,3.9196,1590578515,N
105,2013328,-3.6634,-2.3569,1.8497,39.7600,-3.8500,-16.4500,999.1959,-7.1489,-5.2675,4.1614,1590578515,N
105,2012718,3.1513,1.0385,0.6556,67.9700,5.2500,3.0800,999.1959,-6.6125,-4.8107,5.4132,1590578515,N
105,2023263,-16.5392,-7.0828,-1.9908,-7.9100,70.2100,81.8300,999.1971,-7.8798,-4.3558,3.8867,1590578515,N
105,2029474,-10.0857,-14.6871,1.1988,-78.2600,-10.2900,14.0000,999.1975,-7.8743,-4.8817,3.2148,1590578515,N
106,2027724,2.8762,-0.3709,-2.7470,120.7500,48.4400,-48.0200,999.1971,-7.6853,-5.2980,3.0062,1590578515,N
105,2034818,-15.6562,-7.9777,4.8455,-153.2300,25.7600,46.0600,999.1979,-8.1831,-5.0513,1.9211,1590578515,N
105,2026526,-20.5735,-12.6413,-1.1342,115.0800,16.0300,-16.1700,999.1982,-8.2832,-4.8147,2.0923,1590578515,N
106,2023399,-3.0915,-4.4722,-0.6843,121.1700,-43.1200,-65.0300,999.1985,-7.7121,-5.3737,2.7960,1590578516,N
106,2027148,2.2516,-2.9264,-2.5196,-18.9000,-2.1700,35.9800,999.1984,-0.4213,-9.2781,3.1478,1590578516,N
106,2031837,-19.2287,-9.3655,3.1681,-164.9900,-14.2800,68.2500,999.2008,-8.2383,-5.2170,1.0411,1590578516,N
106,2034635,-5.7428,-5.7811,1.7492,90.5800,1.1200,-0.2100,999.2026,-8.1446,-5.2353,1.5580,1590578516,N
106,2040081,-0.3470,-2.0339,-1.9167,64.4700,-14.3500,-61.7400,999.2038,-0.5647,-9.5210,2.2810,1590578516,N
106,2043107,-11.1625,-11.0955,-1.0959,-142.8700,-38.5700,29.2600,999.2048,-7.9759,-5.6805,0.5368,1590578516,N
106,2037390,-26.2732,-12.4020,7.2670,-72.4500,-30.3800,30.1700,999.2064,-7.0233,-6.8177,0.6016,1590578516,N
106,2026161,1.2658,-3.1035,0.1149,-18.6900,13.7200,-9.3800,999.2065,-5.8440,-7.8618,0.4589,1590578516,N
107,2024010,2.1655,-0.4283,0.3087,-11.6200,-14.6300,23.5200,999.2061,-5.3478,-8.1804,0.8078,1590578516,N
106,2029105,-25.6367,-11.5478,-2.0506,-5.4600,46.7600,66.6400,999.2060,-7.0619,-6.7925,0.4017,1590578516,N
107,2026419,-8.0925,-9.7364,1.5003,6.6500,-26.5300,-28.1400,999.2067,-6.1714,-7.5924,0.6632,1590578517,N
107,2025796,5.6877,2.1679,2.0076,50.8200,-6.5100,-42.1400,999.2065,-6.0475,-7.5335,1.6865,1590578517,N
107,2035132,-13.5577,-3.6538,-1.8951,-124.5300,1.1900,53.6900,999.2084,-4.5682,-8.6690,0.3867,1590578517,N
107,2032184,-21.8393,-13.5506,-0.0479,35.0000,20.0200,46.6200,999.2119,-6.4912,-7.3291,0.5640,1590578517,N
107,2029381,-4.3334,5.0249,3.6849,66.5000,-25.4100,-41.1600,999.2141,-7.4576,-6.1391,1.6930,1590578517,N
108,2039116,2.9599,-0.0598,0.3159,38.1500,-10.7800,-40.3200,999.2153,-6.7617,-6.6171,2.5816,1590578517,N
108,2046958,-17.9653,-5.1398,3.7137,-1.5400,-7.8400,-5.8800,999.2166,-6.9565,-6.3930,2.6281,1590578517,N
107,2045322,-3.5127,-4.9962,0.7537,36.6100,-22.4000,-43.9600,999.2172,-6.5215,-6.7571,2.8251,1590578517,N
108,2038473,-5.5011,5.5681,7.2574,12.0400,1.6800,71.5400,999.2183,-7.7842,-4.5030,3.9116,1590578517,N
108,2042082,-13.2443,-13.3711,2.4048,-20.3700,-14.6300,-29.1200,999.2192,-7.5195,-5.0590,3.7462,1590578517,N
108,2044459,-14.4215,-5.7547,4.7115,29.5400,-26.1100,48.6500,999.2184,-7.8150,-4.4694,3.8886,1590578518,N
108,2043807,-1.4357,0.1244,-1.9406,-40.3900,-45.2200,13.5100,999.2179,-8.1946,-4.4205,3.0787,1590578518,N
108,2049811,-7.9681,-2.5244,0.1196,-165.7600,4.9700,-33.7400,999.2176,-7.6544,-5.7728,2.0629,1590578518,N
108,2055048,-15.0556,-15.1609,-0.1460,-155.3300,-59.1500,-44.8000,999.2167,-5.8679,-7.7802,1.0985,1590578518,N
108,2048309,-0.6772,-4.8718,2.4574,-159.7400,-172.0600,-75.2500,999.2150,-4.1709,-8.8440,0.7466,1590578518,N
108,2043133,1.1773,1.0959,-1.8138,3.0100,-147.0000,-131.4600,999.2141,-2.5269,-9.4755,-0.0165,1590578518,N
107,2036689,-21.8249,-19.3843,2.6058,-103.5300,-117.6000,30.5900,999.2136,-2.8823,-9.3702,-0.2487,1590578518,N
108,2029709,0.4953,-10.1791,0.0790,-73.9900,-117.9500,18.0600,999.2125,-2.4095,-9.4854,0.6263,1590578518,N
108,2023432,8.2098,1.3519,3.3045,87.9900,-99.4000,-42.0700,999.2113,-0.5464,-9.6569,1.6176,1590578518,N
107,2024206,-12.1077,-45.1885,-1.1677,-251.0200,-44.8700,-666.6800,999.2119,4.4920,-8.7068,0.4284,1590578518,N
107,2021549,-1.8377,27.2566,-4.2018,254.6600,59.7800,-251.2300,999.2112,6.3001,-6.0429,4.4678,1590578519,N
107,2005021,-6.0969,-0.0574,-4.5679,-10.2900,-47.4600,624.6800,999.2092,1.0741,-9.7329,0.5363,1590578519,N
106,2001629,-9.1214,-9.4636,2.2899,4.6900,-13.6500,401.5200,999.2087,-2.1066,-8.8795,3.5898,1590578519,N
107,2007135,-15.6610,-25.4740,5.8193,-81.8300,-107.5900,19.8800,999.2074,-2.2969,-9.1442,2.6978,1590578519,N
106,2003717,-1.7324,-12.3015,3.9888,-87.4300,-50.7500,8.8900,999.2039,-2.2950,-9.3514,1.8586,1590578519,N
107,1997496,2.3234,-3.3332,3.0508,-11.5500,7.9800,-69.3700,999.2003,-1.1744,-9.5572,1.8578,1590578519,N
107,1994495,-0.5049,-3.9171,2.8594,64.3300,44.5200,-165.2700,999.1975,-0.0798,-9.7911,0.5470,1590578519,N
107,1994846,-12.6221,-19.9681,0.2130,23.4500,-64.8200,-135.6600,999.1953,0.8859,-9.5253,2.1575,1590578519,N
107,1990476,2.8235,-2.3833,-0.1436,-14.2800,-20.0900,68.1100,999.1931,0.7210,-9.7451,0.8262,1590578519,N
107,1982772,2.1583,0.2776,1.6343,37.2400,-9.3100,-0.9800,999.1915,1.7852,-9.2579,2.6970,1590578519,N
107,1981382,-12.3206,-25.4237,6.5204,2.0300,8.3300,89.0400,999.1894,0.4915,-9.6564,1.6378,1590578520,N
107,1984090,-1.4022,-15.6180,5.0010,-14.2100,-56.3500,6.0200,999.1872,0.3361,-9.7112,1.3228,1590578520,N
107,1979457,4.6062,1.8425,1.3878,73.9200,-8.1200,79.8700,999.1852,0.6757,-9.3957,2.7265,1590578520,N
107,1977937,-3.2375,-8.3701,4.5679,44.3100,109.9000,-39.6900,999.1839,0.3144,-5.7202,7.9593,1590578520,N
106,1976678,-8.8798,-21.1693,-0.4953,-27.9300,-36.1200,-68.9500,999.1826,0.3970,-8.2183,5.3360,1590578520,N
107,1972435,-0.2465,-4.2114,0.4211,-42.8400,-34.5100,52.5700,999.1807,0.0323,-6.6598,7.1984,1590578520,N
106,1970402,3.9051,-1.1797,3.0580,-23.1000,-18.6900,-0.9800,999.1799,0.7463,-8.9381,3.9654,1590578520,N
106,1973966,-5.4245,-21.0186,6.6592,-7.2100,-21.2100,-91.6300,999.1797,1.1959,-8.1812,5.2733,1590578520,N
106,1973983,-0.3661,-10.0810,3.5821,-38.0800,21.3500,-19.3900,999.1790,0.8917,-7.9505,5.6713,1590578520,N
105,1970867,1.9980,-1.2299,0.9476,34.7200,65.1700,-174.9300,999.1783,2.1901,-6.9784,6.5327,1590578520,N
106,1968918,2.0937,-14.2612,1.8209,153.3700,52.7100,-162.8900,999.1783,2.6522,-5.7620,7.4790,1590578521,N
106,1969498,1.6702,-10.1001,2.7063,-7.3500,-58.1000,84.6300,999.1782,2.7138,-6.9643,6.3485,1590578521,N
105,1968137,1.3854,1.7109,2.7422,26.8800,-48.8600,22.4000,999.1772,3.3358,-6.1829,6.8422,1590578521,N
106,1966874,2.7302,-12.6269,4.2329,38.7800,2.8700,-23.3800,999.1763,3.3860,-6.1841,6.8163,1590578521,N
106,1967615,1.4548,-18.7310,6.8076,-58.1700,25.1300,54.7400,999.1748,2.7535,-7.0141,6.2762,1590578521,N
107,1968001,2.0650,-1.3854,2.9886,-67.6900,16.5200,45.0800,999.1728,2.7445,-7.2536,6.0020,1590578521,N
106,1967677,1.0385,-0.0526,1.9214,32.1300,26.6000,-24.5700,999.1704,3.1338,-6.1005,7.0095,1590578521,N
107,1966875,2.0100,-21.5282,0.3230,-16.0300,9.1700,-15.8900,999.1683,3.3875,-6.6714,6.3394,1590578521,N
107,1964806,2.8642,-9.4947,1.7372,-71.3300,-64.0500,82.8100,999.1673,3.2115,-8.2189,4.2786,1590578521,N
107,1960323,5.5011,1.9334,1.9884,23.1700,-75.9500,-22.4700,999.1661,4.7137,-7.1091,4.8386,1590578521,N
108,1966076,-6.4152,-14.6752,5.7165,29.3300,15.6800,-77.6300,999.1656,4.3053,-6.9039,5.4746,1590578522,N
107,1967714,4.1779,-17.5729,3.3691,2.1700,8.6100,14.9100,999.1650,4.0585,-7.3224,5.1070,1590578522,N
108,1964096,4.6780,-2.0315,0.8925,-17.0100,-56.2100,6.5100,999.1647,4.7972,-7.3131,4.4357,1590578522,N
107,1963968,0.5791,-0.7729,1.1318,-10.0800,-83.7200,-75.1800,999.1651,5.6700,-6.6968,4.3788,1590578522,N
107,1968028,4.5607,-17.2331,0.3876,-5.6000,-8.3300,37.8700,999.1655,5.3268,-7.3219,3.7665,1590578522,N
107,1969040,4.8503,-7.6164,-0.3015,-9.2400,-95.6900,101.7100,999.1655,5.2766,-7.8946,2.4502,1590578522,N
107,1966960,2.3641,-0.4451,1.6295,30.4500,-99.5400,-44.3800,999.1648,6.9639,-6.4212,2.5383,1590578522,N
107,1968408,4.3238,-14.9910,4.7785,104.8600,-52.1500,-19.8800,999.1646,7.0726,-6.1203,2.9478,1590578522,N
107,1971996,2.0841,-13.3400,4.7521,66.6400,-11.6200,70.5600,999.1647,6.0853,-6.7782,3.6325,1590578522,N
107,1975991,0.9835,-5.5848,1.1151,-25.6900,-36.6800,65.8000,999.1644,5.2956,-7.5528,3.3291,1590578522,N
107,1975946,1.7468,-1.8544,1.1198,-1.8900,-80.7800,-45.0800,999.1640,6.2521,-6.9693,2.9172,1590578523,N
107,1973836,5.9605,-23.0644,1.0433,-13.7900,0.4200,2.3800,999.1639,6.0812,-7.2175,2.6640,1590578523,N
107,1972129,6.2405,-8.3294,1.8257,-66.0800,6.3000,21.2100,999.1635,5.7383,-7.6528,2.1626,1590578523,N
107,1969052,-0.0885,-2.7063,1.7563,97.9300,105.5600,-76.7900,999.1638,5.1700,-7.4311,3.7709,1590578523,N
107,1969973,0.9380,-9.1645,1.0385,246.4700,-93.8700,8.9600,999.1655,5.3313,-6.8243,4.6018,1590578523,N
108,1968944,5.4700,-14.9001,4.1539,54.5300,-121.6600,66.9900,999.1650,5.4214,-7.0248,4.1751,1590578523,N
107,1970473,2.5747,-7.1593,3.6108,-110.0400,-204.2600,41.9300,999.1649,5.8591,-7.4335,2.5660,1590578523,N
108,1971437,5.5681,-4.5440,0.8088,-22.8200,-34.1600,-3.7800,999.1648,-2.1535,-9.2090,2.5936,1590578523,N
108,1971291,7.8820,-13.9143,1.2299,121.9400,25.6200,23.2400,999.1654,6.1580,-7.1210,2.7460,1590578523,N
108,1974382,1.8185,-5.4485,7.5350,217.1400,30.3800,193.6200,999.1646,4.2391,-7.2400,5.0777,1590578523,N
108,1977664,-0.3087,-3.9984,3.8022,168.0700,-71.7500,0.0700,999.1632,4.4787,-6.4323,5.8938,1590578524,N
108,1979531,0.3517,-5.9438,4.6397,127.4000,-126.7700,-52.5000,999.1619,5.2638,-5.7596,5.9405,1590578524,N
108,1980275,4.6014,-12.4068,11.1242,167.5100,-49.2800,69.3000,999.1603,6.1034,-6.1979,-4.5283,1590578524,N
109,1986548,2.1823,-3.5821,5.9509,0.4200,23.2400,43.1200,999.1591,4.6728,-5.2235,6.8593,1590578524,N
109,1994430,0.9069,1.4189,3.7950,18.2700,15.1200,23.4500,999.1581,6.2752,-6.8317,-3.1813,1590578524,N
109,1998734,3.2351,-7.8724,11.5980,49.4200,36.5400,5.9500,999.1569,6.2809,-7.1832,-2.2631,1590578524,N
109,2006775,0.6796,-5.8768,11.0046,-17.8500,68.7400,-19.9500,999.1555,3.3028,-4.5330,8.0445,1590578524,N
109,2013196,-1.5529,-0.0981,4.9842,-19.6700,-66.9200,20.1600,999.1538,3.2200,4.0009,8.3543,1590578524,N
109,2015544,-1.1127,-3.9721,10.5739,87.5700,-176.3300,22.9600,999.1503,6.4368,7.0727,-2.1713,1590578524,N
109,2015829,5.1015,-10.6361,11.1147,-151.2700,-186.8300,17.7100,999.1458,5.2381,3.1729,7.6593,1590578524,N
110,2009701,6.0945,-5.1326,3.2949,-36.3300,-120.1900,19.1100,999.1415,6.0145,2.9183,7.1749,1590578525,N
109,2008010,4.6134,-0.6963,1.4285,83.7900,-21.0000,-45.5700,999.1368,5.5176,-6.0221,5.4278,1590578525,N
110,2009937,10.0738,-3.2901,3.2112,-40.6700,-7.9800,-20.1600,999.1326,6.0091,-5.9796,4.9301,1590578525,N
110,2010512,8.5041,-3.6371,6.5420,-74.5500,-60.6900,49.9800,999.1290,6.1314,-6.3047,4.3390,1590578525,N
110,2011462,3.7017,0.6963,3.2782,46.4100,-36.6100,-22.8200,999.1264,6.7920,-5.2803,4.7072,1590578525,N
110,2014503,7.6164,-2.7996,5.2977,-20.5800,-8.8900,36.1900,999.1243,6.8615,-5.1090,4.7945,1590578525,N
110,2015252,8.7051,-4.0463,6.2740,-11.9700,-5.3900,44.9400,999.1222,6.7224,-5.2459,4.8437,1590578525,N
110,2015899,8.0303,-3.8907,5.2044,-14.0000,-20.3000,7.1400,999.1209,6.9686,-5.0480,4.7040,1590578525,N
110,2014669,7.4584,-4.9292,5.1661,37.0300,-10.8500,7.9100,999.1190,6.9937,-4.8547,4.8673,1590578525,N
110,2015487,7.3436,-7.5541,4.7402,8.1200,-16.5900,7.9800,999.1180,6.9830,-5.0107,4.7223,1590578525,N
110,2017376,7.6211,-4.1444,2.9767,-20.1600,-24.9900,77.3500,999.1175,6.9588,-5.4408,4.2595,1590578526,N
110,2018356,8.0758,-5.9725,2.8929,-38.4300,-25.2000,-21.4900,999.1181,7.3588,-5.4188,3.5574,1590578526,N
110,2014820,7.1569,-5.1613,3.6802,9.3100,12.5300,-2.0300,999.1188,7.3169,-5.3688,3.7160,1590578526,N
109,2011147,7.6092,-5.2522,3.1681,7.3500,-12.1800,-6.9300,999.1193,7.4945,-5.2390,3.5435,1590578526,N
110,1996985,7.7216,-3.7041,3.4457,3.5700,-10.4300,-1.8900,999.1197,7.7070,-4.9368,3.5214,1590578526,N
110,1994077,8.5017,-4.3597,3.2662,32.0600,-18.4800,31.9900,999.1207,7.7602,-4.8584,3.5136,1590578526,N
109,1995466,8.8104,-4.6708,3.2686,9.0300,-5.6700,22.3300,999.1223,7.7818,-4.8674,3.4530,1590578526,N
109,1995412,8.0183,-4.7330,3.6323,13.5100,-1.4700,11.1300,999.1245,7.7578,-4.8444,3.5382,1590578526,N
110,1995727,8.2313,-4.3238,3.6562,55.2300,18.0600,14.4200,999.1262,7.6749,-4.6712,3.9302,1590578526,N
109,1993071,7.0397,-4.3478,5.1972,65.4500,40.3200,68.4600,999.1276,7.0018,-4.8426,4.8677,1590578526,N
110,1993932,3.1633,-6.2070,4.4076,-111.0200,74.2000,62.7200,999.1289,5.8166,-6.2068,4.8798,1590578527,N
110,2002144,3.7926,-4.4794,6.3266,42.0000,34.7200,116.9000,999.1305,4.7778,-6.5532,5.5135,1590578527,N
110,2005963,3.9721,-11.6124,7.6499,82.8100,59.6400,43.8900,999.1318,3.9928,-6.4050,6.2613,1590578527,N
110,2010480,2.1751,-12.9428,1.9525,-132.3000,56.7000,128.8700,999.1325,2.4738,-8.3114,4.5794,1590578527,N
110,2015127,7.0732,-6.6114,3.8118,-102.3400,-140.2100,248.7800,999.1328,4.0159,-5.6269,6.9556,1590578527,N
110,2018148,1.4405,-9.4277,5.6183,-84.6300,-120.6800,45.9200,999.1335,4.1191,-6.7805,5.7644,1590578527,N
110,2020455,1.4596,-13.0552,7.3053,-30.4500,-55.8600,-126.1400,999.1333,2.3199,-9.2807,2.1580,1590578527,N
110,2017352,1.2826,-11.4233,1.8257,-120.1200,82.2500,-53.0600,999.1337,1.7365,-9.5689,1.2618,1590578527,N
110,2010981,-1.9884,-7.1737,3.5438,-49.0700,117.4600,-133.9100,999.1340,2.3799,-9.2492,2.2268,1590578527,N
110,2006818,2.8810,-12.3972,3.9266,66.7100,30.9400,-100.3800,999.1351,3.2293,-8.5412,3.5763,1590578527,N
109,2005119,4.7282,-9.4516,1.8066,-25.4100,-45.3600,69.0900,999.1367,2.8914,-9.0494,2.4328,1590578528,N
110,2000752,2.2134,-3.7974,2.8164,72.8000,-9.8000,-45.5000,999.1381,3.6942,-8.3557,3.5645,1590578528,N
110,1999286,3.5174,-10.8610,4.2664,189.1400,37.6600,-1.0500,999.1401,3.8181,-7.3829,5.2043,1590578528,N
109,2001606,0.2608,-11.1721,8.0806,-74.0600,133.7700,118.7900,999.1414,1.9093,-8.3265,4.8160,1590578528,N
109,2003223,-0.2895,-3.3858,4.5511,-54.8800,36.8900,-75.5300,999.1422,1.9938,-7.8750,5.4937,1590578528,N
109,2001691,1.2538,-14.2014,4.0175,89.2500,45.2200,-58.1700,999.1423,2.0116,-6.9508,6.6189,1590578528,N
108,1998185,-0.4427,-10.3992,5.1541,-71.7500,-4.2700,60.4800,999.1428,1.4184,-7.8774,5.6662,1590578528,N
108,1995478,0.4116,-2.7015,3.3188,11.4800,-70.7700,-80.5700,999.1428,2.1825,-7.5666,5.8441,1590578528,N
108,1993531,0.6437,-7.0708,6.4247,162.9600,-51.8000,-25.4100,999.1436,2.2496,-6.6043,6.8915,1590578528,N
109,1994861,4.0199,-16.6588,6.6473,-62.5800,-7.5600,108.9900,999.1442,1.5804,-8.1513,5.2181,1590578528,N
109,1997836,1.7300,-7.2263,4.6804,-208.6000,38.6400,65.5900,999.1442,0.6999,-9.3919,2.7338,1590578529,N
110,1999046,2.8020,-3.2925,4.0487,-20.2300,58.3100,-76.5800,999.1442,1.6577,-8.4391,4.7120,1590578529,N
110,1998059,0.9236,-21.2028,5.1565,-16.5900,83.5800,14.5600,999.1444,1.1334,-8.1202,5.3804,1590578529,N
109,1995945,3.2064,-8.5496,3.0532,-29.8200,-24.7800,61.0400,999.1446,1.1879,-9.1153,3.4163,1590578529,N
110,1994128,1.9190,-1.5840,1.3663,78.8900,-44.3800,-70.9800,999.1459,2.5333,-8.1717,4.7933,1590578529,N
110,1992031,1.7898,-17.1039,7.8891,47.8800,-41.3700,-1.0500,999.1473,2.6043,-8.0612,4.9401,1590578529,N
110,1991413,-1.0457,-11.5214,6.4606,38.0800,-28.7700,84.9800,999.1490,1.6959,-8.5186,4.5527,1590578529,N
109,1991456,5.5729,-2.1535,3.0628,58.2400,13.9300,11.4100,999.1502,2.3923,-7.7395,5.5269,1590578529,N
109,1992946,2.4096,-13.6846,0.7059,151.0600,24.4300,-126.4200,999.1512,3.3996,-6.3756,6.6306,1590578529,N
109,1992617,5.2738,-12.1508,5.3312,-44.6600,-60.9000,-38.5700,999.1514,4.0160,-6.8187,5.7921,1590578529,N
108,1987722,-1.7635,4.5966,3.3739,52.7100,-16.3800,2.3100,999.1511,3.7721,-5.6990,7.0330,1590578530,N
108,1986774,-0.1340,-7.6116,5.1087,97.2300,-41.0900,2.7300,999.1501,3.2021,-5.7119,7.3001,1590578530,N
108,1986310,6.3434,-16.2018,6.1615,-51.3100,-19.0400,8.6100,999.1490,3.3616,-6.5931,6.4343,1590578530,N
107,1984525,3.1729,-4.7737,4.6564,-34.5100,-12.1100,67.4100,999.1479,3.0699,-7.2037,5.9036,1590578530,N
108,1982304,0.1340,0.2943,3.2064,61.3900,26.6000,-18.1300,999.1473,3.2422,-5.6923,7.2977,1590578530,N
108,1982570,4.4459,-14.7015,3.1896,-20.0900,27.2300,-80.5700,999.1476,3.6613,-5.8725,6.9483,1590578530,N
108,1980925,0.8782,-14.5460,4.7163,-48.5800,0.7700,30.3800,999.1478,3.1665,-6.7962,6.3211,1590578530,N
107,1977659,-0.2656,1.8114,3.3356,21.7000,-29.3300,-73.1500,999.1482,3.7029,-5.3977,7.3023,1590578530,N
108,1975841,0.1819,-6.9966,4.5129,109.2000,-70.3500,-67.4100,999.1492,3.9848,-4.7657,7.5881,1590578530,N
108,1974405,8.2792,-17.9462,4.0774,7.3500,-26.3200,28.2100,999.1506,4.2401,-5.3942,7.0068,1590578530,N
108,1972713,4.4339,1.7707,6.4869,-55.1600,24.9900,58.3800,999.1510,4.1608,-5.2274,7.1786,1590578531,N
109,1972740,0.9284,1.6223,0.3278,140.6300,-4.8300,59.3600,999.1501,4.1935,-3.4067,8.1841,1590578531,N
108,1974507,8.9803,-19.7193,1.9573,40.2500,22.7500,-91.9100,999.1494,4.5852,-3.1894,8.0606,1590578531,N
109,1971446,7.4536,-19.6140,3.6203,-42.9800,81.8300,-23.1000,999.1481,4.4246,-3.8598,7.8546,1590578531,N
109,1967533,-1.3137,2.0171,0.6843,-56.4900,-7.4200,81.2700,999.1472,3.4680,-3.8420,8.3296,1590578531,N
109,1969138,0.8806,-0.1603,0.2847,-6.1600,-76.7900,36.8200,999.1471,4.4159,-4.3213,7.6156,1590578531,N
108,1972229,9.6574,-22.7653,0.8997,20.5800,12.4600,-33.5300,999.1474,4.7687,-4.5420,7.2664,1590578531,N
109,1971727,0.0096,-14.7206,9.3488,-57.7500,90.9300,115.3600,999.1484,3.1621,-5.8407,7.2151,1590578531,N
108,1970374,0.0120,-2.4622,1.0361,-1.5400,21.8400,-28.1400,999.1490,2.8138,-5.9789,7.2461,1590578531,N
109,1971825,-1.0169,-0.2847,2.5747,76.3700,21.4900,-33.1100,999.1506,2.0259,-4.9499,8.2198,1590578531,N
109,1974196,7.7384,-20.5926,6.5372,-74.4100,-29.4700,-24.5000,999.1514,2.6289,-6.0950,7.2187,1590578532,N
109,1973858,1.1749,-10.0259,5.5274,-34.0900,-14.6300,78.4000,999.1516,2.0765,-7.2373,6.2833,1590578532,N
110,1970742,2.5388,0.9452,-0.3015,157.4300,-26.1100,44.4500,999.1506,2.9890,-5.5144,7.5384,1590578532,N
110,1970412,-1.6582,-4.5894,5.2044,22.6800,-57.2600,-72.5900,999.1495,3.1175,-5.3491,7.6052,1590578532,N
109,1972677,1.3711,-25.9884,8.4323,18.4800,-93.6600,-44.5900,999.1488,3.7094,-5.5521,7.1822,1590578532,N
109,1971607,1.3783,-7.3292,3.8022,-10.9900,20.2300,87.0100,999.1482,2.8726,-6.5263,6.7325,1590578532,N
109,1968322,2.2181,-0.0861,0.3661,43.4700,40.5300,20.5100,999.1470,3.3309,-5.7061,7.2467,1590578532,N
108,1965073,-0.0144,-6.5420,2.2469,64.2600,76.0200,-34.5800,999.1458,2.6358,-5.1959,7.8883,1590578532,N
108,1965163,6.9488,-27.3141,2.3330,-26.5300,-17.0800,-18.2700,999.1458,3.0939,-5.9623,7.1448,1590578532,N
108,1963920,1.0935,-5.3025,5.6901,-12.6700,-40.8100,27.0900,999.1459,2.9638,-6.4529,6.7636,1590578532,N
108,1959225,2.8164,4.5272,-1.2443,200.4800,-117.6700,-9.0300,999.1456,4.6522,-4.0630,7.6170,1590578533,N
109,1959186,0.7801,-10.2413,0.6437,23.7300,-88.4800,-17.2900,999.1464,4.9986,-5.2685,6.5900,1590578533,N
108,1960526,2.3258,-25.4836,8.8654,-43.4700,48.9300,70.0700,999.1471,3.9248,-6.2915,6.4175,1590578533,N
109,1960291,2.3091,-5.3767,1.3208,41.7900,82.1800,27.0200,999.1475,3.4517,-6.4423,6.5386,1590578533,N
108,1954295,0.6245,-0.0407,-1.0433,-7.6300,33.1800,-18.1300,999.1479,4.2541,-6.3214,6.1736,1590578533,N
109,1954482,-0.3876,-13.9980,2.4742,-40.6700,-15.7500,-40.3200,999.1475,3.9572,-6.8616,5.7818,1590578533,N
109,1956672,5.3288,-17.3767,2.6536,-20.6500,-53.6900,46.9000,999.1478,3.8812,-7.5804,4.8626,1590578533,N
108,1945912,-2.2277,3.5103,1.3017,78.5400,-7.7700,-59.7100,999.1490,4.0637,-6.2168,6.4038,1590578533,N
109,1949910,-1.4740,-3.1490,3.0221,66.0800,-76.1600,-16.7300,999.1503,3.8899,-6.1245,6.5978,1590578533,N
108,1956283,6.5563,-24.9787,2.7494,27.3000,-66.7800,27.6500,999.1519,4.1778,-6.5069,6.0313,1590578533,N
108,1955620,3.4122,-3.1442,2.7039,-5.3200,8.4700,20.0900,999.1532,4.2240,-6.5897,5.9079,1590578534,N
108,1954739,1.8305,2.3569,0.2871,39.8300,35.6300,38.2900,999.1539,4.5265,-5.5880,6.6676,1590578534,N
108,1957813,-1.7372,-19.3101,-0.9547,79.2400,78.0500,-66.0100,999.1550,4.0952,-4.9939,7.3798,1590578534,N
108,1960739,-1.1677,-11.5382,2.0530,22.9600,-27.2300,39.3400,999.1555,3.4246,-5.7078,7.2016,1590578534,N
108,1956203,0.8303,10.0235,5.1829,-122.5700,-30.2400,-28.2100,999.1562,3.7439,-5.6497,7.0876,1590578534,N
109,1962937,-3.7926,-16.9843,0.4738,-201.5300,-49.8400,78.4000,999.1577,2.5438,-8.1387,4.8436,1590578534,N
108,1965066,2.6656,-24.9500,0.0933,10.7100,-16.8700,-94.7800,999.1610,3.4846,-7.8362,4.7563,1590578534,N
109,1962291,3.2064,-7.7791,2.3521,28.2800,40.1100,59.8500,999.1617,2.9540,-8.0999,4.6728,1590578534,N
109,1960833,3.0652,0.1101,1.1438,40.1100,64.2600,-27.2300,999.1608,3.7759,-6.8193,5.9507,1590578534,N
110,1960747,3.3571,-14.0243,1.5625,60.4100,106.1200,-75.3200,999.1611,3.7471,-6.2780,6.5357,1590578534,N
109,1961992,-0.5384,-18.3984,3.5557,-44.5200,-29.0500,83.9300,999.1608,2.9453,-7.4603,5.6427,1590578535,N
110,1961180,0.1962,4.2951,5.2738,-93.0300,-46.6200,-69.0200,999.1594,3.7938,-6.8923,5.8544,1590578535,N
110,1963171,1.6606,-5.0225,1.5051,97.1600,-63.2100,-43.4700,999.1574,4.4435,-6.4304,5.9225,1590578535,N
110,1964283,9.5450,-24.4834,7.5159,59.2200,-16.1000,-26.9500,999.1569,4.7160,-6.1603,5.9984,1590578535,N
110,1965691,5.2379,-0.5575,1.4142,-40.8100,69.8600,48.3700,999.1556,4.6143,-6.1608,6.0764,1590578535,N
110,1966442,1.5338,2.0124,1.0863,10.2900,64.4000,-0.9800,999.1531,4.7589,-5.0078,6.9602,1590578535,N
110,1969004,2.0315,-15.3835,2.8211,-24.1500,14.7000,-57.8200,999.1511,4.8246,-5.4463,6.5750,1590578535,N
110,1971204,-0.3135,-19.2287,3.3260,-40.2500,-15.2600,88.1300,999.1495,3.9558,-6.6317,6.0450,1590578535,N
110,1967859,2.2540,3.7448,3.7017,89.6000,-54.8800,48.7900,999.1475,4.3674,-5.3614,6.9535,1590578535,N
109,1970782,1.3184,-7.4560,2.0100,97.3000,-58.3100,-16.1000,999.1474,4.6000,-5.2065,6.9212,1590578535,N
109,1972695,5.8265,-21.9518,4.7498,43.3300,-19.3200,-72.2400,999.1464,5.0595,-4.9505,6.7871,1590578536,N
109,1972262,1.8257,-3.7663,2.7302,-21.2800,25.3400,8.1200,999.1452,4.7366,-5.3956,6.6800,1590578536,N
108,1971609,2.3115,3.8189,1.0959,-42.7700,43.6800,-9.5200,999.1450,5.0899,-4.6395,6.9813,1590578536,N
109,1972753,7.7982,-4.3956,1.9454,-83.9300,47.1100,-70.3500,999.1447,6.0194,-5.0717,5.8494,1590578536,N
108,1975217,2.6058,-32.7960,0.9188,-99.4700,-0.4900,86.0300,999.1444,5.3065,-6.7092,4.7956,1590578536,N
109,1973267,-4.4387,1.4333,3.4002,-17.4300,-21.9100,22.8900,999.1444,4.5432,-6.7773,5.4403,1590578536,N
109,1972317,2.0554,2.7685,0.6245,122.7100,-44.6600,-17.9200,999.1447,5.6541,-4.8917,6.3461,1590578536,N
109,1974108,8.0183,-19.2933,3.0102,65.5200,-62.9300,-52.9900,999.1448,6.3370,-4.5974,5.9057,1590578536,N
109,1976138,5.0847,-17.5681,1.1390,19.8100,43.6100,44.5200,999.1454,5.8357,-5.3411,5.7954,1590578536,N
109,1976948,1.0169,1.5817,1.8879,31.9900,16.8000,86.5900,999.1453,5.3742,-4.6940,6.7271,1590578536,N
109,1979015,0.9858,-0.4451,-0.4810,-52.4300,-24.0100,16.5200,999.1461,6.1493,-5.4845,5.3175,1590578537,N
109,1979604,2.7230,-25.0648,2.9743,-19.0400,33.4600,11.4800,999.1466,5.5784,-6.1197,5.2537,1590578537,N
109,1980737,4.5057,-2.5101,-1.2467,-30.0300,-61.7400,41.2300,999.1473,6.1042,-6.6087,3.9030,1590578537,N
111,1980470,2.4263,3.8764,-0.6915,-26.8800,-43.5400,-8.5400,999.1481,7.2739,-5.6979,3.2855,1590578537,N
109,1982040,-1.8066,-13.6271,6.7262,3.9200,-31.0800,-113.4700,999.1487,7.3237,-5.5027,3.5006,1590578537,N
110,1982492,6.6425,-22.0427,3.1059,-40.1800,2.8700,66.3600,999.1496,6.5326,-6.5458,3.2631,1590578537,N
109,1982323,4.4363,1.5697,3.8046,-13.3000,2.9400,52.1500,999.1503,6.6356,-6.1466,3.7894,1590578537,N
110,1983726,3.6323,2.7159,3.8046,-10.3600,52.5700,3.0100,999.1504,6.7469,-5.4008,4.6348,1590578537,N
110,1984772,1.1797,-23.1960,0.8447,-4.1300,91.7000,-95.0600,999.1503,6.5107,-5.3859,4.9772,1590578537,N
109,1982878,-0.7322,-7.0373,2.3234,-122.0800,-85.0500,44.7300,999.1499,5.6681,-6.9358,3.9922,1590578537,N
109,1981436,0.8160,4.5846,1.8425,21.0000,-89.3900,88.4800,999.1493,5.9135,-6.5477,4.2811,1590578538,N
109,1983255,-2.2684,-16.3454,2.8427,23.5900,-65.7300,-15.1900,999.1503,5.5404,-6.8727,4.2709,1590578538,N
109,1985728,3.3571,-17.8505,3.8883,6.8600,36.5400,133.3500,999.1498,3.9800,-7.9512,4.1362,1590578538,N
109,1989471,-2.7565,-3.4935,3.1059,92.0500,33.3200,250.1800,999.1494,3.2086,-2.6789,8.8712,1590578538,N
109,1994991,-1.8497,-2.5340,1.4094,56.5600,65.0300,96.6000,999.1500,1.6578,-2.7881,9.2546,1590578538,N
110,2007108,-11.9474,-4.1252,0.6987,-63.4900,2.5900,76.6500,999.1503,-0.0045,-4.8013,8.5509,1590578538,N
109,2012906,-17.9294,-11.1769,0.5312,-130.7600,-24.2900,169.8200,999.1504,-1.9278,-6.3672,7.2050,1590578538,N
110,2014935,-1.3400,-5.2714,-1.2514,11.9000,1.7500,31.1500,999.1509,-2.3734,-6.6483,6.8072,1590578538,N
110,2015538,-5.8361,-1.2826,-0.6054,-31.5700,-19.0400,-0.9100,999.1520,-3.2351,-7.1225,5.9139,1590578538,N
110,2020072,-14.3234,-4.5488,3.7424,-142.8700,-35.9800,10.0100,999.1540,-3.9299,-7.5400,4.8861,1590578538,N
110,2019621,-13.3065,-5.6231,1.9884,70.1400,20.9300,44.8700,999.1558,-4.5981,-6.8434,5.3099,1590578539,N
110,2016934,-8.5735,-2.0363,1.8377,61.3200,26.8100,22.6100,999.1571,-5.6320,-5.9001,5.4443,1590578539,N
110,2013603,-9.7244,-5.6973,3.4505,5.6000,34.9300,-43.8200,999.1589,-5.8338,-6.0678,5.0317,1590578539,N
110,2011498,-4.6732,-5.6255,1.2203,-51.3800,-24.0800,-82.7400,999.1607,-5.2672,-7.0513,4.3252,1590578539,N
110,2011171,0.7250,-6.9679,-0.7825,-75.3900,-54.9500,-104.6500,999.1624,-3.6830,-8.3821,3.5137,1590578539,N
110,2012570,-4.5990,-6.3649,-8.1308,155.0500,147.1400,26.9500,999.1644,-4.8115,-7.9494,3.1348,1590578539,N
110,2016638,-2.8642,-11.6028,-6.0060,102.9000,34.7200,-42.4900,999.1660,-4.9626,-7.9537,2.8779,1590578539,N
110,2020252,-13.0887,0.8901,-1.0193,158.1300,106.7500,82.6700,999.1680,-7.4288,-5.6713,2.9696,1590578539,N
110,2022594,-15.1370,-4.6086,2.4359,-109.2000,-46.7600,-72.6600,999.1711,-6.6908,-6.6621,2.6495,1590578539,N
110,2025112,-9.1860,-5.1565,1.8138,-102.3400,-111.4400,-115.4300,999.1741,-5.2437,-7.9428,2.3633,1590578539,N
109,2019766,-4.9627,0.0598,-2.6536,-59.1500,-167.3700,0.3500,999.1765,-4.5937,-8.4958,1.6997,1590578540,N
110,2017801,-7.9298,-5.5920,-1.1964,112.8400,-3.4300,130.6900,999.1790,-6.3236,-7.1866,2.1294,1590578540,N
110,2017866,-6.0562,-14.2038,-2.5244,127.0500,182.5600,-83.2300,999.1814,-7.7262,-5.8942,1.3169,1590578540,N
109,2024770,-8.2768,2.5507,7.2024,12.4600,106.9600,22.8200,999.1838,-8.8135,-4.1747,1.0320,1590578540,N
109,2025465,-17.7595,-8.0710,-6.4893,-36.1900,39.2000,39.6200,999.1865,-4.5877,-8.5930,1.1330,1590578540,N
109,2018516,-11.3563,-9.2961,0.8255,17.2200,-41.0900,-109.9700,999.1893,-3.0178,-9.2218,1.4218,1590578540,N
109,2016904,-4.9914,-4.9412,0.5097,14.2100,-63.0700,-39.2000,999.1906,-7.7060,-5.9182,1.3281,1590578540,N
109,2019512,-8.3868,-3.5605,-0.1172,30.5900,46.7600,71.8900,999.1940,-8.8370,-4.1982,0.6728,1590578540,N
109,2026864,-7.8245,-8.1284,0.4164,-24.9900,-23.5900,-24.9900,999.1973,-8.3390,-5.0993,0.7923,1590578540,N
109,2029279,-5.1326,-5.4269,3.7065,67.2000,-100.6600,-107.8000,999.1994,-6.6703,-6.8294,2.2442,1590578540,N
109,2027591,-10.0834,-14.3402,-1.8138,16.6600,-60.9700,-220.1500,999.2004,-4.5753,-8.3919,2.1937,1590578541,N
109,2023948,-0.4499,-8.2193,-1.6702,-29.1200,-12.3900,4.7600,999.2012,-4.5466,-8.5650,1.4625,1590578541,N
109,2020581,3.8955,0.4475,0.6652,21.4200,-3.6400,43.6100,999.2005,-4.6216,-8.3263,2.3416,1590578541,N
109,2018209,-3.4098,-5.0895,2.9695,13.3700,4.9000,-4.2700,999.2009,-4.6859,-8.2105,2.6077,1590578541,N
109,2016166,-7.0588,-19.7384,1.6893,55.1600,-135.5900,-76.7900,999.2014,-3.3389,-8.6535,3.1842,1590578541,N
109,2012258,8.9563,-5.8959,2.9504,-49.6300,-27.5800,62.9300,999.2007,-2.5487,-8.9968,2.9549,1590578541,N
109,2009446,3.3595,-1.2634,2.0483,50.7500,33.1800,-7.7000,999.1978,-1.9022,-8.9502,3.5279,1590578541,N
109,2008902,-13.7683,-21.6383,6.3960,167.7200,60.4100,-49.1400,999.1962,-2.6404,-8.2377,4.6193,1590578541,N
109,2007824,-1.5936,-7.8580,2.4096,-5.3900,-30.5900,13.3000,999.1934,-2.4672,-8.3765,4.4629,1590578541,N
109,2007153,4.1539,-1.3735,4.5559,49.2100,-5.8800,125.1600,999.1895,-2.7081,-7.6441,5.5140,1590578541,N
109,2010919,-2.8762,-10.2556,9.9374,185.5000,-5.8100,20.9300,999.1861,-3.0082,-6.2520,6.9306,1590578542,N
109,2019193,-6.6066,-6.2046,6.8794,234.5000,59.4300,80.7100,999.1832,-4.0828,-3.9341,8.0015,1590578542,N
109,2029689,-10.0475,-5.3360,6.6257,-35.3500,61.9500,60.0600,999.1808,-5.0288,-4.1431,7.3291,1590578542,N
109,2039441,-6.6975,-3.5940,5.2044,130.2700,49.2800,9.5200,999.1779,-5.5003,-3.3319,7.4037,1590578542,N
109,2044809,-11.3204,-3.8859,5.9007,62.7200,34.5800,-53.5500,999.1747,-5.7169,-3.2878,7.2579,1590578542,N
108,2049275,-5.4341,-4.7593,5.6351,-101.0800,17.0100,15.3300,999.1717,-6.0031,-4.2308,6.4987,1590578542,N
109,2049990,-6.5611,-1.5434,7.8389,-19.0400,24.5700,11.8300,999.1696,-6.2846,-3.7265,6.5412,1590578542,N
109,2051258,-5.7882,-2.5436,5.1924,41.9300,-47.0400,-37.7300,999.1692,-5.7744,-3.5258,7.0990,1590578542,N
109,2053809,-6.3745,-4.8311,7.5206,-28.8400,-27.5100,-24.9900,999.1683,-5.5459,-3.9060,7.0821,1590578542,N
110,2055411,-7.4273,-3.1561,6.8530,-34.5800,77.6300,26.3900,999.1671,-6.4211,-3.8483,6.3348,1590578542,N
109,2055868,-6.1065,-4.0487,3.2016,2.2400,-20.7200,-14.0000,999.1669,-6.3929,-4.0842,6.2146,1590578543,N
110,2057445,-3.8788,-5.7069,8.7266,87.2200,-7.5600,-113.3300,999.1663,-5.3521,-4.2765,7.0169,1590578543,N
110,2058772,-6.9655,-9.6335,6.9057,-32.7600,68.1100,61.1800,999.1649,-6.1153,-4.5272,6.1869,1590578543,N
111,2059615,-6.7382,-1.6510,4.6349,-29.5400,26.1100,57.8900,999.1647,-6.8113,-4.0685,5.7641,1590578543,N
110,2061000,-7.4847,-2.2445,4.4770,14.4200,-98.0700,-60.4800,999.1639,-6.2104,-4.0161,6.4399,1590578543,N
111,2063571,-6.1998,-6.7119,8.5113,17.9900,-84.7700,-38.0100,999.1635,-5.2766,-4.1746,7.1345,1590578543,N
111,2064762,-3.7304,-2.9910,9.5569,-78.5400,42.4900,91.5600,999.1631,-5.8083,-4.0335,6.7945,1590578543,N
111,2065682,-5.5155,-2.5771,5.4867,18.9700,34.5800,19.8100,999.1633,-6.1996,-3.7153,6.6281,1590578543,N
112,2068763,-4.6469,-5.4389,6.9200,40.2500,-27.9300,-74.0600,999.1633,-5.2969,-4.1399,7.1397,1590578543,N
111,2071820,-9.7531,-8.5113,8.5184,13.1600,47.1100,21.4200,999.1631,-5.8250,-4.1525,6.7079,1590578543,N
112,2072285,-6.4630,-3.1801,5.7117,-21.0700,92.8200,102.9700,999.1632,-7.0989,-3.5740,5.7447,1590578544,N
111,2073218,-7.7958,-2.3258,3.0054,14.7700,-14.5600,-0.9100,999.1644,-7.2088,-3.4552,5.6802,1590578544,N
111,2074504,-9.1717,-6.0060,8.8511,72.2400,-84.8400,-91.4200,999.1646,-5.9207,-3.6442,6.9163,1590578544,N
112,2075233,-6.7573,-5.7667,10.7557,-82.7400,30.8700,60.3400,999.1638,-6.4953,-3.8783,6.2402,1590578544,N
111,2074952,-7.3220,-3.1131,3.4337,11.1300,93.8700,37.2400,999.1634,-7.4844,-3.5263,5.2650,1590578544,N
111,2075909,-3.2016,0.4953,2.9480,-10.0800,-59.5700,-70.2800,999.1630,-6.8287,-3.5333,6.0873,1590578544,N
111,2078401,-7.4560,-10.3226,8.4203,45.2200,6.7200,-70.8400,999.1624,-6.2258,-4.0360,6.4125,1590578544,N
111,2078765,-5.3240,-5.1494,2.8642,-67.2700,49.7700,122.3600,999.1639,-7.3997,-3.8898,5.1268,1590578544,N
111,2078817,-7.0421,-1.9214,4.9292,-23.9400,-36.8200,34.9300,999.1649,-7.4692,-3.5963,5.2390,1590578544,N
111,2079676,-6.1902,-4.4100,4.5248,48.1600,-106.9600,-111.2300,999.1655,-6.1550,-4.3151,6.2982,1590578544,N
111,2080396,-0.9380,-7.4297,8.9994,-36.7500,-33.8100,9.6600,999.1666,-5.4114,-4.8136,6.6119,1590578545,N
110,2080197,-4.2377,-2.4814,6.0108,5.6700,108.3600,74.4100,999.1671,-6.5305,-4.1872,5.9992,1590578545,N
110,2080569,-6.9320,-4.0391,2.9838,40.3200,33.5300,-21.2800,999.1674,-6.7759,-4.1865,5.7210,1590578545,N
110,2081668,-5.3169,-5.2594,6.8770,52.7100,-8.4700,-91.5600,999.1669,-5.9055,-4.5880,6.3440,1590578545,N
109,2081062,-11.2343,-8.9133,6.0012,-38.4300,62.7900,86.2400,999.1674,-6.9667,-4.4173,5.3031,1590578545,N
110,2080673,-6.7286,-1.5960,3.1992,-5.9500,22.8900,63.0700,999.1680,-7.6548,-3.7218,4.8707,1590578545,N
109,2081565,-5.0321,-2.8738,4.4770,53.2700,-57.9600,-59.6400,999.1676,-6.8196,-3.9273,5.8515,1590578545,N
109,2082589,-6.6401,-6.3290,5.8959,12.8800,-50.8200,-30.3800,999.1683,-6.2417,-4.2433,6.2615,1590578545,N
109,2082143,-6.5635,-3.9553,7.8054,-41.4400,52.8500,58.9400,999.1684,-6.9177,-4.0257,5.6666,1590578545,N
110,2082100,-6.8100,-4.0845,2.1799,12.5300,20.2300,3.4300,999.1691,-7.2423,-4.0744,5.2076,1590578545,N
109,2083415,-4.7019,-2.6177,6.6951,22.5400,-50.1900,-67.0600,999.1688,-6.3720,-4.3027,6.0872,1590578546,N
110,2083952,-10.9687,-8.9515,7.7240,-24.9900,38.7100,29.2600,999.1683,-6.8492,-4.3797,5.4843,1590578546,N
110,2083583,-6.1926,-2.3378,3.9194,-13.3700,55.6500,91.9800,999.1683,-7.8028,-3.5813,4.7393,1590578546,N
109,2085036,-7.3699,-1.8760,2.8594,34.6500,-46.2700,-18.7600,999.1680,-7.5519,-3.4921,5.1908,1590578546,N
109,2087663,-5.8074,-3.7783,7.2431,81.0600,-40.5300,-53.9000,999.1679,-6.5611,-3.5159,6.3844,1590578546,N
109,2089059,-10.6074,-5.0632,8.0662,-45.5700,43.2600,35.7000,999.1689,-7.2101,-3.5228,5.6369,1590578546,N
109,2088719,-10.4112,-4.1731,3.1968,-0.7700,69.3000,11.2000,999.1696,-7.8920,-3.4244,4.7074,1590578546,N
109,2089490,-6.2524,-1.0744,3.2064,3.9200,-42.7700,-37.9400,999.1705,-7.5409,-3.4971,5.2034,1590578546,N
109,2089562,-2.8379,-5.5657,6.4271,-19.1800,-50.8200,-85.9600,999.1705,-6.0077,-4.7261,6.1435,1590578546,N
109,2088540,-7.6044,-5.8433,6.5468,-64.6100,23.2400,77.0700,999.1705,-6.6757,-4.6392,5.4848,1590578546,N
109,2088925,-7.5972,-2.8355,2.6943,-1.1900,8.2600,24.2200,999.1705,-7.1224,-4.3694,5.1332,1590578547,N
109,2091522,-8.1404,-4.5248,5.6830,51.6600,-78.8900,-89.4600,999.1710,-6.1384,-4.6704,6.0562,1590578547,N
108,2093220,-1.5793,-8.7888,9.0090,0.2100,40.3900,19.5300,999.1713,-5.9406,-4.9120,6.0624,1590578547,N
109,2092767,-3.6634,-2.5747,3.7256,-47.8800,73.9900,83.5100,999.1716,-6.9108,-4.5595,5.2556,1590578547,N
108,2093033,-8.4060,-3.2518,2.5460,-14.6300,-21.1400,-18.6200,999.1723,-7.1323,-4.6449,4.8708,1590578547,N
108,2094602,-11.9330,-6.4056,5.8840,62.0200,-23.0300,-111.1600,999.1722,-6.4575,-5.0466,5.3855,1590578547,N
108,2095767,-8.0566,-10.7581,6.5850,-38.2900,41.0200,69.3000,999.1725,-6.9853,-4.9852,4.7458,1590578547,N
108,2095329,-7.4465,-0.5480,2.5866,41.5800,60.6900,50.1200,999.1732,-7.8952,-3.8238,4.3835,1590578547,N
108,2095325,-5.4437,-4.9244,2.8905,20.4400,-92.2600,-52.9200,999.1738,-6.9947,-4.4850,5.2087,1590578547,N
108,2095995,-8.9779,-7.1641,7.4800,-6.3700,-26.6700,-9.3100,999.1743,-6.7263,-4.6755,5.3914,1590578547,N
108,2095003,-7.5924,-3.4672,5.7835,-22.4000,86.9400,57.6800,999.1750,-7.6065,-4.0559,4.6757,1590578548,N
108,2094867,-7.6211,-5.7858,0.7466,39.0600,14.1400,-9.5200,999.1762,-7.8419,-4.3493,3.9698,1590578548,N
107,2095927,-11.6554,-7.7216,6.3529,56.7700,-26.1800,-42.4200,999.1772,-7.4197,-4.5330,4.5354,1590578548,N
108,2096294,-9.1334,-8.5065,5.7069,-32.2000,38.0100,32.3400,999.1780,-7.7193,-4.5355,4.0015,1590578548,N
107,2096857,-7.2431,-0.7107,2.2780,-8.8200,65.3100,65.8000,999.1788,-8.5984,-3.4312,3.2349,1590578548,N
107,2097073,-8.7242,-4.0104,1.3232,8.3300,-44.3800,-42.2100,999.1796,-8.3255,-3.9999,3.2951,1590578548,N
108,2097613,-7.1139,-4.7186,5.5442,23.9400,-56.4200,-53.2700,999.1799,-7.5327,-4.5652,4.3114,1590578548,N
107,2096979,-9.3918,-4.8670,7.0756,-26.4600,43.8900,65.5900,999.1808,-8.0875,-3.9970,3.8454,1590578548,N
107,2097624,-6.9464,-2.9791,0.7801,-7.3500,-17.7800,5.9500,999.1816,-8.1640,-4.0803,3.5877,1590578548,N
107,2098482,-6.2907,-3.7208,5.3719,3.3600,-102.2700,-83.5100,999.1819,-7.0150,-4.8513,4.8400,1590578548,N
107,2097377,-5.1182,-9.3416,6.5228,15.4000,-36.3300,-45.0100,999.1817,-6.2177,-5.4179,5.3062,1590578549,N
106,2096463,-5.8576,-3.6060,3.9673,-15.9600,123.6900,134.4000,999.1822,-7.7826,-4.2737,4.1637,1590578549,N
107,2098282,-8.8989,-3.4959,2.5890,-42.2800,-6.5100,26.9500,999.1819,-8.0817,-4.1457,3.6972,1590578549,N
107,2100064,-6.3314,-4.2138,4.4459,45.4300,-81.6900,-79.5900,999.1821,-7.1146,-4.7817,4.7633,1590578549,N
105,2100108,-10.9424,-11.2941,9.1454,-9.0300,16.1000,44.3100,999.1829,-7.3153,-4.6513,4.5850,1590578549,N
106,2099947,-4.9651,-0.6485,3.6514,-9.4500,72.8700,91.8400,999.1830,-8.3239,-3.3835,3.9287,1590578549,N
105,2102530,-5.0967,-0.5671,2.8259,4.3400,-41.4400,-39.2700,999.1831,-7.9874,-3.4698,4.5091,1590578549,N
105,2105039,-4.9627,-5.8816,6.5133,61.5300,-38.6400,-162.4700,999.1827,-6.3312,-4.7299,5.8064,1590578549,N
105,2105181,-11.1266,-10.5930,7.5350,-10.4300,97.1600,110.8800,999.1824,-7.5396,-4.1306,4.7183,1590578549,N
105,2105611,-8.3940,-0.9452,2.7470,-46.2700,52.5000,110.5300,999.1827,-8.6901,-2.7678,3.6044,1590578549,N
105,2108003,-6.4965,-1.3089,2.1368,-0.8400,-70.1400,-77.0000,999.1824,-8.0407,-3.4431,4.4343,1590578550,N
105,2108810,-2.6847,-6.7119,7.3388,52.9200,-69.3700,-92.2600,999.1820,-6.1257,-4.6048,6.1190,1590578550,N
105,2107302,-3.4935,-5.8505,6.1496,-69.6500,43.6100,95.2700,999.1819,-6.4294,-4.8184,5.6228,1590578550,N
104,2106272,-8.1093,-2.4096,1.7515,31.1500,38.0800,-0.2800,999.1823,-7.0168,-4.5160,5.1518,1590578550,N
105,2108204,-4.2353,-3.0724,3.4122,-6.5100,-100.1000,-117.8100,999.1814,-5.7224,-5.3584,5.8918,1590578550,N
104,2109033,-14.9073,-11.3970,8.7362,-16.5900,34.3700,5.2500,999.1800,-6.0955,-5.4417,5.4225,1590578550,N
105,2107745,-7.5350,-4.9914,1.9765,-21.2100,85.6800,158.0600,999.1793,-7.7683,-4.4905,3.9572,1590578550,N
105,2108667,-7.3292,0.0359,2.2325,-19.2500,-32.6900,-28.3500,999.1790,-7.7357,-4.2780,4.2459,1590578550,N
104,2109525,-4.7378,-5.2283,4.5775,46.0600,-82.5300,-131.6000,999.1777,-6.2785,-5.2810,5.3724,1590578550,N
105,2107869,-3.5390,-10.1862,6.5468,-59.0800,-12.3200,54.6000,999.1772,-6.1296,-5.6291,5.1876,1590578550,N
105,2107654,-8.8247,-1.2156,3.7591,0.9100,36.8900,64.1200,999.1771,-7.3168,-4.3134,4.9020,1590578551,N
105,2109522,-6.5587,-2.6560,3.3356,-10.2900,-88.8300,-71.7500,999.1772,-6.5179,-4.8392,5.5017,1590578551,N
105,2110514,-2.9432,-10.8993,7.4034,-35.4200,-45.5700,-79.3800,999.1780,-5.3005,-5.9317,5.7349,1590578551,N
105,2109836,-4.8120,-5.0704,3.7998,-5.3200,127.4000,161.9800,999.1785,-7.0454,-4.9049,4.7408,1590578551,N
105,2109345,-8.7625,-1.0768,1.5697,-4.4800,25.2700,2.2400,999.1788,-7.8178,-4.1807,4.1921,1590578551,N
105,2110556,-11.0261,-5.7260,4.6397,41.7200,-65.9400,-111.9300,999.1789,-6.8833,-4.9130,4.9652,1590578551,N
105,2109034,-6.0395,-8.5878,7.2335,-19.7400,24.1500,-1.5400,999.1780,-6.7563,-5.2199,4.8244,1590578551,N
104,2109114,-5.2857,-2.7087,1.3998,25.5500,88.9000,61.8800,999.1777,-7.8199,-4.4383,3.9143,1590578551,N
105,2110975,-7.5206,-3.4337,1.8688,7.7700,-37.2400,-33.1800,999.1779,-7.5657,-4.7233,4.0768,1590578551,N
105,2111339,-3.2160,-5.1948,6.3099,75.6000,-16.6600,-112.4900,999.1782,-6.3927,-5.3748,5.1396,1590578551,N
104,2110798,-10.1312,-10.1001,6.5635,-36.1900,59.7100,152.3200,999.1782,-7.5983,-4.5469,4.2144,1590578552,N
104,2110589,-8.5065,-1.4692,0.8327,25.4100,19.2500,56.4900,999.1787,-8.2947,-3.7452,3.6526,1590578552,N
104,2112227,-7.3747,-2.2732,2.7900,-13.9300,-129.0800,-107.5900,999.1789,-7.1092,-4.7722,4.7807,1590578552,N
103,2112286,-9.4899,-10.0714,7.1378,-21.0700,-32.2000,-0.5600,999.1788,-6.8010,-5.1142,4.8746,1590578552,N
104,2111497,-4.5392,-2.8235,3.9242,-25.4800,80.2900,109.4800,999.1785,-7.8418,-4.1974,4.1302,1590578552,N
104,2112244,-7.7121,-2.5220,0.3541,9.3800,6.3000,3.2200,999.1790,-8.1109,-4.1233,3.6582,1590578552,N
103,2113461,-9.2148,-4.3454,4.7163,38.5700,-72.0300,-138.7400,999.1793,-6.9819,-5.0947,4.6333,1590578552,N
103,2113642,-9.1908,-9.6215,6.4798,-7.3500,-0.6300,-2.6600,999.1787,-6.8649,-5.3014,4.5759,1590578552,N
103,2112599,-7.3699,-3.2518,4.9508,-17.0100,95.3400,152.5300,999.1786,-8.2514,-3.7570,3.7375,1590578552,N
103,2113543,-8.8152,-0.6604,-0.7418,46.6900,10.5000,-6.0200,999.1782,-8.7242,-3.5935,2.6732,1590578552,N
103,2114445,-5.7811,-4.7569,5.3121,10.1500,-94.7100,-153.8600,999.1776,-7.0947,-5.3375,4.1649,1590578553,N
103,2113962,-7.5159,-8.1260,8.2337,-25.3400,25.5500,68.5300,999.1775,-7.4119,-5.0130,4.0131,1590578553,N
103,2112540,-7.1880,1.0313,3.5414,-38.7800,56.0000,74.7600,999.1771,-8.4102,-3.6648,3.4652,1590578553,N
102,2113891,-4.9508,-1.1103,3.4050,-0.5600,-52.4300,-101.3600,999.1772,-7.6330,-4.3886,4.3184,1590578553,N
102,2114788,-3.8261,-8.5161,7.9322,52.3600,-43.2600,-150.7800,999.1771,-6.0124,-5.5611,5.3940,1590578553,N
102,2114467,-12.1077,-12.8423,6.0347,-5.6000,98.9800,144.9000,999.1769,-7.5073,-4.5943,4.3248,1590578553,N
102,2113025,-8.5304,-2.7517,2.2421,-13.5800,51.4500,105.4900,999.1759,-8.5589,-3.4694,3.2984,1590578553,N
102,2114394,-7.7671,-0.7490,0.8973,-74.9700,-116.6200,-112.0000,999.1747,-7.5706,-4.7851,3.9949,1590578553,N
102,2115995,-0.0909,-10.6122,6.7669,-36.1900,-90.9300,-63.9800,999.1728,-5.8455,-6.1931,4.8627,1590578553,N
101,2115384,-2.4957,-7.7336,4.9316,-24.5000,86.7300,92.6800,999.1716,-6.1303,-6.1812,4.5146,1590578553,N
102,2116001,-8.4108,-3.1777,0.1268,17.4300,32.2700,8.4000,999.1704,-6.9709,-5.9044,3.5658,1590578554,N
101,2117426,-7.0804,-3.0963,4.6636,48.5800,-30.3100,-152.3200,999.1678,-6.2797,-6.1284,4.3794,1590578554,N
101,2117490,-5.2355,-6.8818,3.2542,8.8900,21.7000,-82.8100,999.1665,-5.7799,-6.7576,4.1349,1590578554,N
101,2116299,-7.4201,-7.6546,4.9364,-88.9000,53.2000,220.5000,999.1653,-7.3552,-5.5832,3.3014,1590578554,N
101,2115988,-9.0927,-0.3685,1.2012,16.0300,6.0900,5.9500,999.1643,-8.1839,-4.2573,3.3272,1590578554,N
101,2116994,-8.1117,-3.4672,3.5222,51.8700,-55.3700,-127.6100,999.1633,-7.3664,-4.9360,4.1884,1590578554,N
101,2115527,-3.7639,-7.1976,4.7402,-65.2400,-71.2600,-37.5900,999.1628,-6.0926,-6.1648,4.5876,1590578554,N
101,2113707,-6.9272,-6.7502,3.7472,-51.4500,29.7500,96.5300,999.1625,-6.8089,-5.8475,3.9518,1590578554,N
101,2114971,-7.4847,-4.5488,1.3543,-3.8500,-16.3800,12.5300,999.1613,-7.0809,-5.7862,3.5427,1590578554,N
101,2116702,-5.6662,-2.8618,4.3071,27.8600,-77.0700,-128.8000,999.1597,-6.0009,-6.3797,4.4113,1590578554,N
101,2116999,-8.3366,-12.7274,7.5661,-14.7700,28.2800,0.4200,999.1584,-5.9909,-6.5459,4.1750,1590578555,N
101,2116369,-6.1759,-2.9384,4.6181,-14.4200,113.1200,166.6700,999.1585,-7.7995,-4.8209,3.4781,1590578555,N
101,2116880,-6.6688,-1.0768,-0.7944,3.4300,-25.6200,-36.0500,999.1583,-7.7060,-5.2296,3.0724,1590578555,N
101,2117409,-1.6008,-5.7858,5.5944,8.9600,-83.2300,-109.3400,999.1576,-5.9753,-6.5798,4.1439,1590578555,N
102,2116907,-8.2600,-8.8798,7.3747,-40.8100,-5.6700,20.9300,999.1584,-5.9828,-6.6326,4.0479,1590578555,N
101,2116741,-6.2118,-1.3687,5.6590,28.9100,95.4800,71.3300,999.1592,-7.2913,-5.2173,3.9733,1590578555,N
102,2118469,-6.4199,-3.5533,0.2560,-27.7900,-73.5000,-19.0400,999.1591,-6.9138,-5.7650,3.8903,1590578555,N
102,2120198,-4.4459,-5.9892,7.0780,-31.9900,-111.2300,-99.9600,999.1589,-5.3163,-6.6870,4.8158,1590578555,N
102,2121045,-8.8869,-10.7198,8.7099,30.4500,125.1600,88.3400,999.1594,-6.5598,-5.8341,4.3707,1590578555,N
102,2120928,-7.9394,-2.6201,0.6628,2.3800,50.4000,61.4600,999.1596,-7.5426,-5.1221,3.6115,1590578555,N
102,2122923,-6.5324,-2.1440,3.8740,38.7800,-70.9800,-89.7400,999.1588,-6.7988,-5.4208,4.5344,1590578556,N
102,2121515,-9.2195,-9.9159,5.9605,44.1000,17.9900,-106.8200,999.1579,-6.2110,-5.9920,4.6572,1590578556,N
102,2118896,-7.9729,-9.5498,4.3597,-48.9300,38.2900,89.3900,999.1583,-6.9173,-5.7167,3.9548,1590578556,N
102,2119617,-6.5779,-4.9316,0.5958,-39.2000,-5.7400,43.8200,999.1581,-7.2246,-5.7045,3.3815,1590578556,N
102,2121710,-5.9725,-3.7352,4.0247,-11.5500,-60.0600,-82.6700,999.1583,-6.3904,-6.3439,3.8844,1590578556,N
102,2122505,-4.7737,-7.9992,6.5109,21.7000,3.2200,-78.9600,999.1580,-5.6590,-6.8281,4.1862,1590578556,N
102,2120071,-4.4722,-6.9033,5.1924,-22.0500,109.6200,140.5600,999.1582,-6.7709,-6.0197,3.7534,1590578556,N
102,2122965,-7.3986,-2.9121,1.2849,-10.2200,2.4500,48.0900,999.1585,-7.3416,-5.5222,3.4317,1590578556,N
101,2126548,-6.5444,-3.1442,5.1135,24.5000,-97.8600,-95.7600,999.1584,-6.4368,-5.7771,4.6220,1590578556,N
101,2125153,-10.5284,-7.4249,7.9490,4.9700,4.2700,-42.2100,999.1577,-6.2603,-5.9018,4.7061,1590578556,N
101,2122772,-5.5178,-5.3767,4.6875,-53.5500,33.2500,111.9300,999.1579,-6.9422,-5.4365,4.2919,1590578557,N
101,2122282,-5.6303,-3.6873,1.4596,-13.0200,-8.2600,2.3800,999.1586,-7.0289,-5.5318,4.0204,1590578557,N
101,2123899,-5.7691,-5.1135,5.3575,38.6400,-59.8500,-109.4100,999.1580,-5.9865,-6.0460,4.8763,1590578557,N
101,2123253,-5.9964,-10.8108,7.7743,-2.7300,51.8000,-7.6300,999.1578,-5.9896,-6.2286,4.6368,1590578557,N
101,2121595,-7.6714,-4.2449,4.0726,-19.9500,106.7500,136.8500,999.1582,-7.6177,-4.9008,3.7581,1590578557,N
101,2122683,-7.7384,-1.0361,0.6891,11.8300,9.4500,4.6900,999.1586,-8.0217,-4.4644,3.4485,1590578557,N
100,2123918,-6.5731,-4.6253,4.8048,38.7100,-78.2600,-95.3400,999.1588,-6.9543,-5.1965,4.5612,1590578557,N
100,2123095,-7.7958,-4.8120,7.6738,1.1900,27.9300,24.0800,999.1588,-7.2089,-4.8505,4.5469,1590578557,N
100,2123068,-5.3647,-2.7422,1.5936,-32.1300,-25.7600,54.9500,999.1597,-7.5228,-4.6386,4.2498,1590578557,N
100,2124844,-6.8339,-3.9553,4.4028,-16.8000,-60.6900,-40.8800,999.1609,-6.9916,-5.0107,4.7096,1590578557,N
102,2124950,-4.3190,-6.4511,5.3934,98.6300,-28.0700,-163.8000,999.1612,-5.5002,-5.8253,5.6554,1590578558,N
101,2126081,-5.4413,-10.7964,9.1095,-24.4300,40.9500,78.1200,999.1615,-5.9633,-5.6602,5.3453,1590578558,N
102,2127978,-4.8072,-1.5984,3.2518,29.9600,112.2100,134.9600,999.1618,-7.6013,-4.1424,4.6077,1590578558,N
102,2133718,-7.4417,-2.0435,0.9571,-30.1000,-18.4800,22.1900,999.1613,-7.8925,-4.0825,4.1487,1590578558,N
102,2137751,-7.2574,-2.7350,3.4744,37.7300,-77.7000,-94.1500,999.1605,-7.0094,-4.6114,5.0767,1590578558,N
102,2137903,-9.3081,-9.0879,7.5613,-36.0500,10.3600,17.8500,999.1600,-7.0706,-4.8123,4.7978,1590578558,N
102,2137327,-8.7625,-1.5482,3.4768,-15.7500,48.1600,63.3500,999.1600,-8.0604,-3.7098,4.1758,1590578558,N
102,2137229,-7.7121,-2.2947,2.6249,3.9900,-59.5000,-52.8500,999.1602,-7.5821,-4.1045,4.6728,1590578558,N
100,2136848,-4.3167,-4.5727,5.4700,16.5900,-27.5100,-121.0300,999.1599,-6.4617,-5.0447,5.3822,1590578558,N
101,2135505,-8.4658,-10.1097,6.0826,-26.9500,72.8000,78.7500,999.1598,-7.2686,-4.7782,4.5284,1590578558,N
101,2134110,-6.0132,-0.2871,2.3378,15.4000,66.0800,76.4400,999.1597,-8.2890,-3.4749,3.9228,1590578559,N
100,2135284,-5.8648,-2.9886,1.3161,13.2300,-51.8700,-62.0200,999.1600,-7.7716,-4.1370,4.3194,1590578559,N
100,2135513,-2.0841,-8.0782,5.5155,16.9400,-41.2300,-37.3100,999.1600,-6.3051,-5.2791,5.3429,1590578559,N
100,2134158,-10.7031,-5.7236,6.4391,9.1000,73.1500,97.3700,999.1597,-7.4255,-4.3749,4.6789,1590578559,N
99,2133298,-8.2816,-2.7159,1.6223,-63.7000,-31.0100,20.3000,999.1605,-7.7679,-4.4253,4.0307,1590578559,N
98,2135401,-6.5659,-2.3282,2.8499,43.1200,-72.3800,-117.3900,999.1597,-6.8354,-5.0322,4.9117,1590578559,N
99,2137126,-8.1045,-10.0546,7.9513,1.6100,-21.8400,-64.7500,999.1584,-6.1512,-5.6359,5.1546,1590578559,N
99,2137245,-8.3270,-6.6233,5.6830,-9.3800,115.1500,162.6100,999.1575,-7.7870,-4.3597,4.0652,1590578559,N
98,2140048,-6.9440,-0.4235,1.4285,84.7000,-14.8400,68.1800,999.1575,-8.3030,-3.0616,4.2257,1590578559,N
97,2143250,-10.7677,-1.1222,4.9292,-43.6800,-141.4700,-150.7100,999.1567,-6.8379,-4.2555,5.5951,1590578559,N
98,2143016,-0.5815,-13.6008,12.2130,-19.1800,3.5700,2.4500,999.1560,-6.1790,-4.8529,5.8686,1590578560,N
97,2141616,-0.8279,-3.0772,3.5342,-17.0100,73.0800,105.7000,999.1555,-6.7262,-4.5604,5.4892,1590578560,N
96,2138535,-6.3960,0.1795,0.6102,4.7600,-40.1100,-63.7700,999.1548,-6.5699,-4.3015,5.8740,1590578560,N
97,2138184,-3.4505,-6.8267,6.2644,50.1900,-79.1700,-157.4300,999.1544,-4.7146,-5.2802,6.7869,1590578560,N
96,2137806,-5.5753,-8.6979,8.1045,-27.2300,67.2700,116.1300,999.1534,-5.7143,-5.0272,6.1843,1590578560,N
96,2136397,-7.8341,1.2108,2.0387,42.3500,78.6800,145.7400,999.1533,-7.4109,-3.0845,5.6334,1590578560,N
95,2138735,-6.5013,1.8520,-0.7322,-6.3700,-92.8900,-52.2200,999.1535,-6.9644,-2.8457,6.2904,1590578560,N
96,2138844,-8.3390,-6.1615,6.9033,-93.9400,-192.9900,-140.7700,999.1537,-5.1268,-4.3084,7.1641,1590578560,N
95,2134904,-2.9647,-16.9747,10.3537,-93.8000,-126.5600,-133.4900,999.1537,-3.3957,-5.6835,7.2345,1590578560,N
94,2129401,0.5216,-2.5005,5.5753,-3.7100,-77.5600,-162.0500,999.1542,-1.5935,-6.0730,7.5332,1590578560,N
94,2123542,0.8853,-1.5266,3.8261,67.7600,-48.1600,-155.0500,999.1540,-0.2845,-1.3077,9.7149,1590578561,N
94,2121622,3.6251,-8.1236,7.0062,-70.9800,-47.7400,-77.4900,999.1524,0.8739,-5.4233,8.1237,1590578561,N
94,2118205,4.9723,-4.0439,5.6375,-14.0700,-24.4300,-100.2400,999.1506,2.0267,-5.5063,7.8577,1590578561,N
93,2114853,4.8383,-5.2499,5.1302,34.3700,-1.3300,28.3500,999.1483,2.2825,-5.5809,7.7340,1590578561,N
93,2111083,4.1946,-5.6423,4.5846,-60.8300,2.8000,-42.8400,999.1446,2.8520,-6.0440,7.1768,1590578561,N
93,2102726,7.5326,-5.4509,4.7665,-24.2900,-19.4600,0.0700,999.1409,3.8017,-6.3142,6.4690,1590578561,N
93,2093024,5.7500,-4.6349,4.6875,-46.5500,-29.1900,-67.8300,999.1379,4.6699,-6.2175,5.9753,1590578561,N
92,2085006,8.0160,-5.5561,3.2662,-18.2000,-13.0200,-13.5100,999.1347,5.4027,-6.2395,5.2962,1590578561,N
93,2081544,7.4441,-5.3623,3.7807,-31.8500,-5.9500,15.0500,999.1324,5.7055,-6.3627,4.8097,1590578561,N
92,2073119,8.0638,-5.8193,3.3476,-18.0600,-6.2300,28.7700,999.1304,5.9026,-6.5027,4.3640,1590578561,N
92,2047664,7.4441,-6.6760,3.0867,-2.2400,6.4400,-4.7600,999.1284,6.1073,-6.4877,4.0965,1590578562,N
91,2021814,7.2335,-5.6399,2.7876,14.0700,20.4400,-10.5700,999.1256,6.3485,-6.2864,4.0433,1590578562,N
92,1980204,6.8794,-5.6279,3.7663,17.2200,26.5300,-2.4500,999.1221,6.3894,-6.1166,4.2347,1590578562,N
91,1986915,7.3101,-5.4532,4.1492,-1.8200,28.1400,9.6600,999.1207,6.3524,-6.0712,4.3541,1590578562,N
90,2008160,7.4393,-4.9555,4.4674,3.9900,10.3600,-13.3700,999.1195,6.5802,-5.7460,4.4559,1590578562,N
91,1972764,7.3196,-4.8909,4.6110,7.4900,15.5400,-15.2600,999.1172,6.7269,-5.4535,4.6020,1590578562,N
90,1962414,6.7190,-4.6828,4.6899,39.8300,44.3100,1.5400,999.1161,6.5640,-5.2016,5.1018,1590578562,N
89,1966493,4.1850,-4.1372,4.6684,34.5800,45.5000,63.9800,999.1148,5.8024,-5.4550,5.7224,1590578562,N
90,1980262,0.4834,-7.1019,2.9791,-41.5800,38.7800,165.7600,999.1130,3.9534,-7.0922,5.4993,1590578562,N
90,1990738,-0.7011,-6.7765,4.8191,-39.2700,69.8600,289.7300,999.1118,1.9890,-4.2764,8.5981,1590578562,N
90,2005590,-2.6082,-11.9833,10.6289,10.2200,53.8300,213.5700,999.1104,0.4844,-4.3378,8.7817,1590578563,N
91,2026746,-4.5535,-6.4511,10.1719,53.3400,-17.5700,47.1100,999.1096,0.1402,-3.8946,8.9990,1590578563,N
91,2041480,-5.7308,-4.5655,7.3914,6.7900,70.9100,116.1300,999.1090,-2.0225,-4.5792,8.4327,1590578563,N
91,2052579,-8.0303,-0.7992,4.8000,-58.5200,80.9200,43.4000,999.1089,-4.1995,-4.6273,7.5580,1590578563,N
92,2057231,-10.6361,-4.2951,3.5486,-7.2800,11.9700,-63.4900,999.1090,-4.5529,-5.0598,7.0597,1590578563,N
91,2058093,-8.1404,-5.7356,5.5777,-19.3200,-43.6100,-39.6200,999.1096,-4.3770,-5.3541,6.9531,1590578563,N
92,2058812,-7.1521,-5.2235,7.3125,-7.3500,14.2100,17.6400,999.1115,-4.7778,-5.2503,6.7658,1590578563,N
91,2060090,-6.9703,-4.0439,5.3599,3.7100,53.8300,77.9800,999.1144,-5.9420,-4.6869,6.2367,1590578563,N
90,2062247,-7.6116,-2.1224,2.6130,28.2800,-21.8400,25.2700,999.1167,-6.3044,-4.2203,6.2141,1590578563,N
91,2063262,-6.1184,-2.6608,6.7597,27.0200,-53.4800,-49.4900,999.1194,-5.7233,-4.0253,6.8711,1590578563,N
90,2062614,-7.2311,-5.2307,7.5206,3.5700,43.4000,42.2800,999.1224,-6.2892,-3.8235,6.4805,1590578564,N
91,2064106,-22.0953,-1.9286,3.5222,25.6200,79.5900,18.1300,999.1260,-7.2523,-3.3441,5.6913,1590578564,N
91,2069766,-8.1906,0.4044,3.8907,-22.6800,-68.3900,-22.4700,999.1281,-7.1441,-2.8223,6.0965,1590578564,N
91,2075054,-5.4580,-4.3693,6.4056,39.2700,-91.5600,-93.3800,999.1302,-5.7054,-3.3958,7.2172,1590578564,N
91,2076265,-11.7559,-6.4128,11.9306,-70.2100,59.5000,88.5500,999.1327,-6.8731,-3.3398,6.1463,1590578564,N
91,2075844,-5.1350,0.0574,1.4788,22.8900,82.9500,75.9500,999.1353,-8.0987,-2.2059,5.0711,1590578564,N
91,2077098,-8.5328,-0.5551,5.1541,-13.0900,-82.3900,-52.0800,999.1373,-7.4686,-2.3065,5.9220,1590578564,N
92,2077417,-8.3103,-6.2309,6.6927,-1.1200,-104.2300,-65.2400,999.1392,-6.3020,-3.0232,6.8787,1590578564,N
91,2076863,-8.5687,-5.3504,10.6863,-72.8000,-1.1200,61.6700,999.1408,-6.7859,-3.1430,6.3438,1590578564,N
91,2078317,0.8758,-3.5486,2.4263,-127.1200,62.0900,-12.1800,999.1409,-6.3944,-4.6014,5.8403,1590578564,N
91,2079298,-10.1743,3.1801,1.5840,-100.5900,-80.0800,-44.9400,999.1405,-6.7590,-4.0022,5.8711,1590578565,N
91,2082425,-1.7348,-10.4423,5.9007,25.6200,-12.4600,-109.1300,999.1409,-5.4691,-5.0573,6.3783,1590578565,N
91,2083316,-9.2148,-13.9621,7.5350,-9.7300,85.8200,219.1000,999.1415,-7.2334,-3.9897,5.2850,1590578565,N
91,2083170,-7.1785,-3.5151,1.3878,56.1400,41.6500,67.4100,999.1426,-8.0237,-3.2500,4.6074,1590578565,N
91,2085693,-8.0566,-2.0913,4.1803,14.5600,-59.6400,-121.2400,999.1442,-7.2395,-3.8541,5.3765,1590578565,N
90,2087577,-0.9117,-6.8770,6.2620,9.7300,32.1300,-91.5600,999.1456,-5.7407,-5.2122,6.0040,1590578565,N
90,2085488,-0.6126,-10.7438,3.1250,-19.6000,27.5800,71.4700,999.1470,-5.7827,-5.4694,5.7285,1590578565,N
90,2085265,-7.2048,-1.6343,3.0461,-11.0600,4.4800,41.0200,999.1486,-6.4378,-4.9178,5.5264,1590578565,N
91,2087446,-5.8648,-3.0652,3.3212,1.7500,-44.4500,-109.9000,999.1496,-5.7080,-5.5060,5.7683,1590578565,N
90,2084349,-5.2187,-8.8367,6.1687,-50.8900,25.6200,-1.0500,999.1497,-5.6830,-6.0106,5.2674,1590578565,N
91,2062323,-5.9844,-1.6223,2.7398,-6.7900,63.6300,113.6800,999.1497,-7.0945,-4.8448,4.7293,1590578566,N
91,2065777,-6.6640,-3.7280,1.5673,-80.9900,-103.1800,-48.5800,999.1496,-6.3574,-5.8155,4.6833,1590578566,N
91,2066984,-6.3793,-9.6909,5.7858,63.5600,-81.7600,-118.0200,999.1495,-5.0802,-6.3732,5.4538,1590578566,N
91,2057037,-6.7884,-9.2291,7.7719,10.8500,35.2800,55.5800,999.1498,-5.5852,-6.0145,5.3667,1590578566,N
91,2051240,-7.1306,-4.2520,5.1948,-3.3600,69.0200,146.3000,999.1509,-7.0315,-4.7834,4.8834,1590578566,N
91,2064283,-7.7121,-3.7639,1.8736,-78.0500,-10.5700,-0.4200,999.1516,-7.1162,-5.2227,4.2724,1590578566,N
91,2073660,-6.0897,-3.2112,4.7928,45.5700,-42.9100,-155.6100,999.1527,-6.0323,-5.8846,5.0153,1590578566,N
91,2076274,-2.9504,-11.9880,6.9464,60.1300,29.6800,-15.6800,999.1527,-5.6814,-5.9696,5.3157,1590578566,N
91,2076871,-4.9938,-5.1900,4.5583,38.8500,98.2800,158.1300,999.1533,-7.1744,-4.6750,4.7794,1590578566,N
91,2083932,-9.8321,-1.8449,2.0841,13.2300,-24.2900,21.9100,999.1531,-7.6987,-4.0489,4.5284,1590578566,N
92,2088781,-6.1854,-4.1013,6.0538,32.9700,-112.7700,-132.9300,999.1528,-6.1607,-4.8182,5.9162,1590578567,N
91,2091218,-8.2672,-6.5252,7.9561,-37.1700,-14.4200,31.0800,999.1528,-6.2699,-4.8495,5.7741,1590578567,N
92,2089259,-4.7234,-3.9745,5.5274,-45.4300,81.3400,125.4400,999.1532,-7.3916,-4.1832,4.9027,1590578567,N
92,2089654,-6.8148,-0.7729,-0.1962,93.3800,29.4000,11.9700,999.1528,-8.0144,-3.6169,4.3425,1590578567,N
91,2091064,-4.7928,-7.3125,4.8311,33.7400,-45.5700,-130.5500,999.1515,-6.5292,-5.0928,5.2539,1590578567,N
92,2091453,-11.4066,-7.4489,8.4682,-53.6900,60.0600,77.4200,999.1500,-7.3598,-4.6968,4.4659,1590578567,N
92,2092000,-6.9727,0.5456,1.1270,27.7200,66.3600,67.2000,999.1493,-8.4239,-3.1803,3.8851,1590578567,N
92,2093133,-8.3031,-1.9310,2.6919,-38.1500,-98.1400,-88.4100,999.1491,-7.7434,-3.9175,4.5677,1590578567,N
93,2093237,-5.1637,-6.6162,6.2979,25.2700,-94.4300,-117.6700,999.1487,-6.0812,-5.0642,5.7917,1590578567,N
93,2091738,-7.6259,-10.4782,9.9135,-75.4600,33.1100,71.1200,999.1486,-6.5263,-5.1843,5.1673,1590578567,N
93,2091720,-9.5115,-0.6150,5.2475,87.4300,68.3200,73.9900,999.1487,-7.5765,-3.6223,5.0642,1590578568,N
94,2094455,-6.3793,-0.3829,2.7398,-23.3800,-66.7800,-79.6600,999.1487,-6.9725,-3.9538,5.6499,1590578568,N
93,2096302,-5.1470,-9.3344,5.2666,94.5000,-28.5600,-119.9100,999.1481,-5.8092,-4.5382,6.4675,1590578568,N
94,2095784,-7.4130,-8.5161,8.1571,-19.1100,53.2700,94.9900,999.1474,-6.6021,-4.2887,5.8472,1590578568,N
94,2096028,-5.8146,-0.9356,2.7254,38.0800,80.7800,78.8900,999.1481,-7.6805,-3.2450,5.1623,1590578568,N
94,2098080,-8.0566,-2.1009,2.7565,-4.2000,-78.1200,-81.6900,999.1479,-6.9920,-3.7830,5.7420,1590578568,N
94,2097442,-3.2830,-7.7839,5.0273,8.3300,-73.3600,-76.2300,999.1489,-5.5851,-4.9234,6.3825,1590578568,N
95,2095432,-6.2572,-7.1498,7.6427,-53.5500,3.7800,127.4000,999.1494,-6.2882,-4.6128,5.9457,1590578568,N
94,2098052,-5.9462,-0.2297,5.9103,13.3000,76.2300,90.6500,999.1506,-7.4233,-3.3997,5.4321,1590578568,N
94,2105038,-6.4774,-1.4381,1.5745,6.0900,-45.5000,-109.4100,999.1516,-6.8181,-4.0583,5.7632,1590578568,N
93,2109110,-4.5918,-8.2935,5.4915,20.5800,-59.7100,-132.3700,999.1519,-5.4481,-5.0903,6.3701,1590578569,N
95,2108128,-7.1402,-9.6742,9.3464,-7.4900,68.6000,101.9900,999.1517,-6.3368,-4.7034,5.8218,1590578569,N
94,2106878,-7.4800,-1.9573,-0.1412,26.4600,91.8400,65.4500,999.1528,-7.7290,-4.1057,4.4246,1590578569,N
95,2108685,-7.7743,-2.3258,3.1920,2.5200,-71.0500,-70.5600,999.1531,-7.0822,-4.5349,5.0445,1590578569,N
95,2107891,-2.4191,-5.7835,4.8742,4.3400,-61.6000,-108.7800,999.1526,-5.6384,-5.5693,5.7760,1590578569,N
95,2105327,-3.7256,-8.5902,6.0826,-40.6700,10.2900,86.5200,999.1523,-5.9398,-5.5447,5.4906,1590578569,N
95,2105309,-7.7073,-1.5027,4.7904,42.8400,68.7400,70.4200,999.1525,-7.1657,-4.0982,5.2941,1590578569,N
95,2108987,-5.7787,-3.4552,2.3809,10.0100,-61.6700,-82.8800,999.1519,-6.4576,-4.7312,5.6645,1590578569,N
95,2109345,-3.7065,-11.1625,8.9683,16.3100,-33.5300,-95.9000,999.1505,-5.2607,-5.5396,6.1488,1590578569,N
96,2108404,-10.5428,-8.5376,7.8485,-15.6800,114.3800,189.9800,999.1491,-7.1636,-4.4173,5.0339,1590578569,N
95,2109760,-5.6447,-1.1557,1.4477,-7.2800,49.2100,73.3600,999.1484,-8.1141,-3.5731,4.1910,1590578570,N
95,2113734,-8.3366,-1.6726,2.5412,-65.8000,-91.2800,-126.9800,999.1486,-7.3393,-4.5334,4.6640,1590578570,N
96,2114039,-3.8309,-11.2893,5.1637,42.0700,-36.4000,-78.8900,999.1483,-6.2342,-5.3858,5.3195,1590578570,N
95,2111882,-7.8724,-4.9531,6.5252,-0.0700,81.6200,120.0500,999.1483,-7.4468,-4.3713,4.6484,1590578570,N
95,2113431,-7.0732,-2.4694,0.4379,-29.2600,54.6700,28.3500,999.1483,-8.1516,-4.1488,3.5368,1590578570,N
96,2115658,-5.8672,-3.8166,1.7396,18.1300,-59.5700,-138.3900,999.1481,-7.0741,-5.3855,4.1381,1590578570,N
95,2115248,-6.3960,-12.8471,5.6686,14.1400,-28.9800,-31.6400,999.1480,-6.4253,-5.9263,4.4458,1590578570,N
96,2114649,-4.8957,-5.6183,3.8070,-78.1900,56.0700,174.0200,999.1486,-7.5996,-5.0633,3.5748,1590578570,N
95,2115018,-8.2983,-4.6229,0.7825,-51.8700,-37.7300,-0.4200,999.1495,-7.4993,-5.5396,3.0403,1590578570,N
95,2114863,-5.2762,-5.8217,4.9292,21.2800,-89.8800,-158.4800,999.1513,-5.8627,-6.7527,4.0249,1590578570,N
95,2113168,-5.0608,-9.9781,5.2140,21.3500,21.1400,6.0900,999.1528,-5.8450,-6.7281,4.0914,1590578571,N
95,2111461,-7.5924,-3.9266,4.9890,1.7500,81.7600,120.1200,999.1538,-7.3293,-5.2591,3.8462,1590578571,N
95,2112408,-7.7695,-3.6491,1.5960,10.0100,18.2000,-9.2400,999.1541,-7.5620,-5.1418,3.5423,1590578571,N
95,2113508,-6.1567,-6.0156,2.1200,66.9200,-14.3500,-122.4300,999.1538,-6.7955,-5.9628,3.7996,1590578571,N
95,2111998,-6.3601,-10.1504,4.4028,-6.3000,-20.7900,-12.6700,999.1541,-6.3858,-6.3481,3.8850,1590578571,N
94,2112178,-6.4487,-5.3216,3.7113,-39.1300,49.4900,169.4000,999.1552,-7.6245,-5.1896,3.3324,1590578571,N
95,2114181,-7.6786,-2.2684,0.9882,15.9600,-21.9100,-17.0100,999.1555,-7.6636,-5.1233,3.3452,1590578571,N
95,2114878,-4.7569,-6.0156,4.3406,30.9400,-109.9700,-123.6900,999.1553,-6.0823,-6.2774,4.4465,1590578571,N
96,2112206,-8.0231,-9.2291,8.1643,-58.3800,-2.8000,33.1100,999.1552,-6.1118,-6.3883,4.2433,1590578571,N
95,2110366,-7.4345,-4.2616,5.0656,6.6500,78.6100,115.1500,999.1548,-7.4149,-5.0493,3.9616,1590578571,N
96,2112789,-7.0038,-2.4814,1.1725,35.7000,-1.8200,16.1700,999.1538,-7.7496,-4.6262,3.8357,1590578572,N
96,2113941,-7.3723,-5.1900,5.4700,68.2500,-45.8500,-115.2200,999.1522,-6.7887,-5.1960,4.8047,1590578572,N
96,2112832,-12.1890,-9.9900,8.2337,-1.4000,65.8000,33.7400,999.1515,-7.3407,-4.8977,4.2775,1590578572,N
96,2112519,-7.2431,-2.8834,2.5364,-2.1700,65.0300,86.0300,999.1521,-8.2974,-3.9263,3.4507,1590578572,N
96,2113185,-8.2768,-1.8257,1.8042,-16.9400,-68.1100,-33.8100,999.1525,-7.9342,-4.2737,3.8671,1590578572,N
96,2110634,-3.4768,-5.1924,5.4915,-6.5100,-92.2600,-96.0400,999.1533,-6.4521,-5.4641,4.9684,1590578572,N
96,2106718,-6.1113,-8.8582,5.8911,-31.7100,9.9400,80.7800,999.1543,-6.7973,-5.2898,4.6887,1590578572,N
95,2108534,-6.0538,-1.1629,5.5059,-39.8300,10.8500,103.4600,999.1550,-7.5753,-4.2737,4.5300,1590578572,N
96,2112266,-6.9655,-1.9238,1.6032,2.9400,-42.0700,-54.8100,999.1570,-7.2761,-4.6064,4.6915,1590578572,N
96,2114264,-6.4941,-8.6213,7.6307,21.7700,-47.3200,-158.1300,999.1587,-5.8212,-5.7989,5.3532,1590578572,N
95,2114449,-5.9701,-9.1525,8.2505,7.2800,104.5100,128.4500,999.1597,-6.9917,-4.9610,4.7619,1590578573,N
95,2114086,-7.8317,-1.5673,0.8279,56.4200,86.3800,41.7900,999.1609,-8.0618,-4.0060,3.8897,1590578573,N
95,2115256,-7.2191,-1.6223,2.3115,-4.3400,-78.3300,-97.6500,999.1613,-7.2706,-4.6945,4.6119,1590578573,N
95,2113636,-6.7932,-7.6379,4.7426,-9.0300,-52.4300,-48.7200,999.1619,-6.5582,-5.3631,4.9394,1590578573,N
95,2111175,-7.4489,-7.2933,4.8048,-64.0500,-5.3200,115.7100,999.1631,-7.1517,-5.0228,4.4491,1590578573,N
95,2115340,-7.1186,-1.9549,2.8235,-45.9900,0.2100,61.3200,999.1639,-7.6817,-4.4906,4.1227,1590578573,N
95,2120015,-6.1256,-1.3711,3.5509,13.6500,-68.4600,-79.4500,999.1646,-7.0198,-4.8005,4.8835,1590578573,N
94,2121007,-3.6156,-8.3366,7.3029,9.3100,-61.3900,-161.8400,999.1653,-5.2666,-6.1096,5.5772,1590578573,N
95,2120572,-5.6853,-9.5713,7.9490,8.0500,89.2500,128.8000,999.1661,-6.4029,-5.3642,5.1380,1590578573,N
95,2120142,-6.4630,-1.0839,3.1753,-53.8300,80.0100,79.8700,999.1666,-7.6124,-4.4811,4.2593,1590578573,N
94,2122302,-7.6977,-1.9023,2.4885,36.4000,-73.1500,-78.8900,999.1665,-6.9823,-4.7560,4.9797,1590578574,N
94,2123180,-4.4865,-7.8197,7.5278,37.7300,-53.4100,-102.6900,999.1666,-5.7014,-5.4690,5.8098,1590578574,N
94,2120231,-9.1717,-9.6191,7.1474,5.0400,66.9900,57.0500,999.1670,-6.4621,-5.1677,5.2636,1590578574,N
94,2120442,-6.9129,-2.4766,4.3502,4.3400,83.0200,119.0700,999.1671,-7.7735,-3.9507,4.4871,1590578574,N
93,2122302,-7.3460,-0.7777,1.3065,40.6700,-18.6900,-44.9400,999.1653,-7.6827,-3.8353,4.7368,1590578574,N
94,2123210,-6.9033,-5.5131,6.1017,8.0500,-89.8100,-152.4600,999.1636,-6.1842,-4.9834,5.7525,1590578574,N
94,2122060,-9.1143,-9.3607,10.0762,31.8500,53.0600,70.0700,999.1628,-6.7693,-4.4420,5.5331,1590578574,N
93,2123883,-6.3577,-4.9220,2.4790,180.6000,-10.9200,-19.9500,999.1625,-6.4671,-3.7630,6.3393,1590578574,N
93,2124937,-6.7597,-0.0861,3.9194,102.5500,-120.8200,-218.4000,999.1621,-4.7748,-3.6109,7.7674,1590578574,N
93,2120423,-2.9169,-0.8997,0.6700,39.4800,-33.1800,38.9900,999.1614,-5.1139,-3.2887,7.6943,1590578574,N
93,2117780,-8.7194,-3.9817,3.1107,-159.4600,182.0000,308.8400,999.1609,-8.5373,-2.6350,4.0425,1590578575,N
92,2122353,-15.8812,-5.7260,5.6088,-358.7500,163.3800,285.3900,999.1602,-9.7626,-0.2929,0.8807,1590578575,N
93,2125317,-1.3137,-7.1258,8.2002,-49.3500,-31.2900,-156.3100,999.1601,-8.7520,-3.7676,2.3193,1590578575,N
92,2125733,-5.2475,-6.2859,8.7386,24.6400,-182.1400,-312.6900,999.1596,-5.6541,-6.8072,4.2266,1590578575,N
92,2123529,-5.8505,-6.1328,6.8076,108.3600,39.5500,9.7300,999.1597,-6.0446,-5.9788,4.8875,1590578575,N
92,2127208,-9.1525,-2.5771,4.7737,110.0400,124.2500,92.4700,999.1586,-7.6617,-4.0920,4.5524,1590578575,N
92,2132895,-5.1565,-1.1246,2.4574,62.9300,-26.3200,-30.2400,999.1583,-7.4078,-3.8102,5.1747,1590578575,N
92,2135700,-8.8463,-3.8596,9.9039,4.1300,-35.8400,-78.6100,999.1573,-6.6804,-4.1675,5.8459,1590578575,N
92,2131617,-9.3631,-4.6110,7.9322,-51.9400,47.1800,51.0300,999.1568,-7.3335,-3.9998,5.1372,1590578575,N
91,2129290,-9.4205,-0.8423,4.8287,10.2900,78.6800,54.8100,999.1570,-8.2378,-2.8939,4.4649,1590578575,N
92,2130125,-4.6684,-1.1581,3.4768,-0.3500,-53.9700,-57.6800,999.1567,-7.5936,-3.2361,5.2948,1590578576,N
91,2130631,-5.3025,-5.3192,7.8532,15.4000,-17.5000,-70.2100,999.1556,-6.7913,-3.8097,5.9611,1590578576,N
91,2129389,-8.3103,-4.1587,6.6066,-47.6700,106.6100,145.5300,999.1550,-8.2719,-2.9328,4.3755,1590578576,N
91,2128463,-7.6044,-0.6556,-0.4738,-2.5200,-11.9700,-20.4400,999.1547,-8.4800,-3.1733,3.7671,1590578576,N
91,2129836,-4.8359,-2.3043,5.0776,40.1100,-106.6100,-75.4600,999.1541,-7.2785,-3.7649,5.3869,1590578576,N
91,2128507,-8.2672,-6.1519,7.1306,1.9600,-37.7300,-23.7300,999.1537,-6.8300,-4.0567,5.7502,1590578576,N
91,2126560,-6.2644,-3.4457,6.9511,-57.3300,46.0600,48.5800,999.1531,-7.2755,-3.8831,5.3065,1590578576,N
92,2127188,-8.7099,-3.3547,3.4768,26.3200,54.2500,17.3600,999.1526,-7.8967,-3.5157,4.6317,1590578576,N
91,2127983,-6.5779,-2.3521,4.3669,17.4300,-53.8300,-50.2600,999.1524,-7.3024,-3.7763,5.3465,1590578576,N
92,2127205,-6.9823,-6.2118,8.3773,4.6200,-27.5800,-70.2100,999.1519,-6.5391,-4.3509,5.8720,1590578576,N
92,2126210,-5.6112,-4.8144,5.3791,-33.5300,76.6500,93.4500,999.1511,-7.3452,-4.0725,5.0629,1590578577,N
92,2126447,-7.5422,-1.1007,3.3428,-21.2100,29.4000,49.9800,999.1511,-7.9928,-3.4232,4.5352,1590578577,N
92,2127230,-8.2265,-2.1200,3.9027,25.6200,-88.4800,-60.4100,999.1513,-7.3667,-3.5916,5.3854,1590578577,N
92,2126135,-7.2000,-6.2644,7.9155,1.9600,-49.4900,-27.4400,999.1518,-6.7187,-3.9641,5.9426,1590578577,N
92,2125216,-5.2379,-4.5272,6.7143,-36.6100,82.1100,81.1300,999.1526,-7.3468,-3.7653,5.2932,1590578577,N
92,2127187,-10.5117,-2.1583,2.0124,9.9400,34.8600,20.3000,999.1531,-7.9488,-3.3944,4.6331,1590578577,N
92,2128948,-9.7149,-1.8736,3.7783,-28.7000,-88.7600,-72.1000,999.1528,-7.4127,-3.7786,5.1908,1590578577,N
92,2128358,-4.6445,-7.3005,5.7691,-12.5300,-72.5900,-83.3000,999.1522,-6.0408,-5.0073,5.8827,1590578577,N
92,2126786,-5.9462,-5.3073,7.8652,-29.8900,78.3300,111.5100,999.1528,-7.0592,-4.3942,5.1990,1590578577,N
93,2126453,-8.1930,-2.5149,1.7492,40.3900,70.0000,13.3000,999.1535,-7.8009,-3.9009,4.4832,1590578577,N
92,2127424,-7.2287,-3.7448,3.5270,8.7500,-80.9900,-48.8600,999.1546,-7.1954,-4.3572,5.0410,1590578578,N
92,2124529,-6.6712,-7.5876,7.1402,5.5300,-32.1300,-31.9200,999.1542,-6.6108,-4.7790,5.4432,1590578578,N
92,2121726,-4.8766,-3.6826,6.2477,-26.7400,50.0500,70.2100,999.1544,-7.1934,-4.3569,5.0441,1590578578,N
92,2123939,-7.3962,-2.9025,2.7781,9.4500,52.5000,36.5400,999.1548,-7.8560,-3.8666,4.4162,1590578578,N
92,2126845,-6.9129,-2.0004,2.8379,-3.2200,-60.5500,-52.9900,999.1547,-7.3607,-4.2248,4.9133,1590578578,N
92,2127178,-6.9823,-7.4441,5.4485,0.7700,8.1900,-81.2000,999.1541,-6.8022,-5.0007,4.9894,1590578578,N
92,2126908,-6.2955,-5.1924,3.9003,-18.6900,102.8300,125.7900,999.1533,-7.9549,-4.2079,3.8966,1590578578,N
92,2127263,-8.9468,-1.8138,0.9212,9.4500,30.2400,48.2300,999.1533,-8.6929,-3.4106,2.9952,1590578578,N
92,2128918,-9.3272,-0.9906,1.6774,-1.5400,-106.1900,-90.8600,999.1530,-8.1037,-3.9152,3.8952,1590578578,N
92,2128647,-6.4917,-7.7527,6.3697,-6.3700,-80.2200,-69.2300,999.1533,-6.9865,-4.9382,4.7930,1590578578,N
92,2126370,-8.3510,-7.1593,6.7119,-32.6900,20.6500,59.8500,999.1539,-7.3557,-4.7129,4.4557,1590578579,N
92,2126767,-7.2168,-1.6606,5.2116,1.6800,91.9100,96.3900,999.1545,-8.4237,-3.2324,3.8424,1590578579,N
92,2128785,-7.8341,-1.3161,0.8782,17.6400,-34.7200,-36.4700,999.1542,-8.2678,-3.4496,3.9892,1590578579,N
92,2129594,-5.1805,-5.0177,5.8576,-11.7600,-107.0300,-146.4400,999.1535,-6.4724,-5.0283,5.3847,1590578579,N
92,2128765,-15.9075,-11.1577,9.8154,-13.7200,59.7100,48.9300,999.1530,-7.1761,-4.7000,4.7523,1590578579,N
92,2128535,-7.5063,-1.5482,3.0102,24.1500,110.6000,138.7400,999.1531,-8.6738,-2.9323,3.5124,1590578579,N
91,2130321,-7.2957,-0.3398,2.0171,-29.3300,-44.7300,7.4200,999.1537,-8.6384,-2.7619,3.7309,1590578579,N
92,2131144,-5.7691,-4.7234,5.9366,25.1300,-99.1900,-130.6900,999.1539,-7.0132,-4.1863,5.4278,1590578579,N
92,2129230,-7.3220,-6.4893,7.6307,-8.1200,-2.1700,-15.6800,999.1531,-6.7787,-4.4494,5.5156,1590578579,N
91,2127904,-5.9222,-4.5129,5.0608,-10.9200,69.8600,86.6600,999.1528,-7.5194,-3.9928,4.8670,1590578579,N
91,2128676,-8.1141,-2.0506,2.5699,51.1000,33.0400,3.3600,999.1525,-7.8861,-3.5271,4.6410,1590578580,N
92,2129471,-4.0343,-1.5147,5.6853,52.1500,-47.1800,-80.2200,999.1519,-6.9119,-3.7306,5.8718,1590578580,N
91,2130006,-9.8871,-6.9176,7.9370,-49.3500,27.7900,70.1400,999.1511,-7.5167,-3.6048,5.1647,1590578580,N
91,2129688,-6.8794,-0.6532,2.2995,32.4100,55.5100,31.8500,999.1514,-8.1648,-2.8517,4.6232,1590578580,N
91,2130751,-9.0377,-1.9765,3.7041,-9.1700,-93.4500,-62.7200,999.1513,-7.5690,-3.2274,5.3353,1590578580,N
91,2128693,-5.0369,-4.9771,6.7262,-2.8700,-61.9500,-67.2000,999.1509,-6.4078,-4.0309,6.2339,1590578580,N
91,2125395,-6.4247,-5.9151,6.5324,-17.2900,39.7600,63.2100,999.1509,-6.9615,-3.8787,5.7152,1590578580,N
92,2125228,-11.8660,-3.0939,6.8483,13.0900,82.8800,77.1400,999.1502,-8.0001,-2.9992,4.8138,1590578580,N
92,2128194,-7.7456,-1.4644,2.2851,15.0500,-45.8500,-6.9300,999.1495,-7.8675,-2.9349,5.0656,1590578580,N
92,2129331,-5.1230,-5.4389,6.2381,31.4300,-51.3800,-81.0600,999.1493,-6.6127,-3.8360,6.1423,1590578580,N
92,2129608,-10.2197,-6.8124,8.5208,-22.1900,75.6700,97.5800,999.1496,-7.6517,-3.3385,5.1455,1590578581,N
91,2129935,-7.8197,-0.0646,1.6965,3.2200,48.1600,77.3500,999.1501,-8.5717,-2.2426,4.2033,1590578581,N
92,2131505,-8.2768,-0.7633,3.8620,5.7400,-91.0700,-62.2300,999.1501,-7.8845,-2.4662,5.2842,1590578581,N
92,2131334,-7.3077,-3.8788,6.2524,-4.7600,-75.9500,-65.6600,999.1501,-6.9367,-3.1570,6.1713,1590578581,N
91,2129012,-8.7171,-5.4174,8.2313,-12.8100,42.7700,43.9600,999.1506,-7.4336,-3.0208,5.6380,1590578581,N
92,2129325,-5.1494,0.0646,4.3190,21.2800,80.5000,66.1500,999.1512,-8.3043,-2.0157,4.8111,1590578581,N
92,2131584,-7.3508,0.0981,2.9049,1.1200,-52.6400,-61.4600,999.1519,-7.7147,-2.2278,5.6294,1590578581,N
91,2131945,-8.4586,-6.0993,7.0947,46.8300,-68.6700,-127.6100,999.1524,-6.2981,-2.9940,6.8950,1590578581,N
91,2131056,-9.9613,-9.1047,10.7845,-30.3800,46.1300,83.6500,999.1539,-7.1078,-2.9552,6.0759,1590578581,N
92,2130772,-8.6213,-1.1677,4.9005,28.3500,93.1700,102.9000,999.1541,-8.3373,-1.8071,4.8367,1590578581,N
91,2133440,-6.8291,0.1388,0.9452,31.3600,-35.9800,-37.8000,999.1542,-7.8712,-1.6921,5.5992,1590578582,N
91,2134154,-6.8243,-5.1254,6.4511,8.1200,-103.5300,-77.5600,999.1540,-6.6011,-2.6294,6.7589,1590578582,N
91,2131023,-8.9492,-5.9797,10.6983,-38.0800,35.2800,46.9700,999.1535,-7.1602,-2.7177,6.1251,1590578582,N
91,2130721,-8.8367,-1.1151,5.2164,-1.8900,63.9800,73.7800,999.1534,-8.1643,-1.9103,5.0858,1590578582,N
91,2132924,-6.9057,-0.7681,3.0485,-15.8900,-56.0000,-47.8100,999.1525,-7.6795,-2.2455,5.6704,1590578582,N
90,2133674,-6.0634,-4.8407,6.0395,18.6200,-80.2900,-123.6200,999.1510,-6.2286,-3.3140,6.8112,1590578582,N
91,2133032,-9.5186,-9.3081,10.0594,-36.1900,38.9900,89.7400,999.1508,-7.0271,-3.2483,6.0198,1590578582,N
90,2132108,-5.3216,0.0598,4.4435,48.4400,89.1800,91.0700,999.1505,-8.0871,-1.9679,5.1862,1590578582,N
90,2134188,-6.0251,-0.4546,3.1346,2.8700,-64.0500,-45.0800,999.1495,-7.4662,-2.1459,5.9851,1590578582,N
90,2133380,-8.3701,-4.8550,6.5827,1.0500,-65.8000,-69.5800,999.1488,-6.5774,-2.7764,6.7231,1590578582,N
90,2128103,-5.9725,-5.0441,7.6786,-12.6000,63.7000,55.7200,999.1486,-7.2296,-2.7208,6.0415,1590578583,N
90,2127893,-8.7458,-2.4598,2.0267,15.6100,68.6700,46.2000,999.1499,-8.3358,-2.4192,4.5642,1590578583,N
89,2130519,-6.2740,-0.2824,3.2853,-13.0200,-67.2700,-60.1300,999.1499,-7.7084,-2.7384,5.4085,1590578583,N
90,2130595,-5.8313,-5.5059,5.8146,2.7300,-83.0900,-116.8300,999.1498,-6.3035,-3.9295,6.4028,1590578583,N
89,2129395,-9.1765,-7.3531,8.9803,-44.5900,42.2100,80.4300,999.1499,-7.0601,-3.7826,5.6584,1590578583,N
90,2129238,-6.2859,-0.4953,4.4985,68.3200,108.9200,76.1600,999.1497,-8.1155,-2.4804,4.9149,1590578583,N
89,2131770,-8.2457,0.1436,1.9932,1.7500,-65.3800,-57.1200,999.1487,-7.5696,-2.5741,5.6785,1590578583,N
89,2131092,-5.4485,-6.4822,8.3079,-63.7700,-30.4500,-60.7600,999.1478,-6.8737,-3.6273,5.9805,1590578583,N
90,2125490,-7.6881,-5.1278,5.2738,5.6700,104.3700,25.5500,999.1472,-7.6136,-3.6017,5.0231,1590578583,N
89,2126508,-7.0421,-3.0461,0.6054,-3.6400,-9.0300,-11.6900,999.1470,-7.7802,-3.8623,4.5520,1590578583,N
89,2127987,-5.4365,-2.3880,3.6897,-4.6900,-105.0000,-94.1500,999.1467,-6.6608,-4.5672,5.5628,1590578584,N
89,2127575,-6.4965,-8.7386,7.7336,-27.2300,-45.4300,-20.5800,999.1471,-6.0804,-5.0818,5.7770,1590578584,N
89,2125541,-6.0156,-6.0682,6.7119,-22.4700,77.0000,130.7600,999.1484,-7.2010,-4.3629,5.0280,1590578584,N
89,2127159,-6.8913,-1.5170,1.6893,32.2700,29.1900,56.9800,999.1491,-7.9428,-3.5338,4.5382,1590578584,N
89,2128923,-6.6760,-2.9097,4.4339,26.1100,-101.8500,-50.3300,999.1488,-7.0396,-3.8899,5.6110,1590578584,N
89,2128142,-7.0062,-6.1902,8.4969,-11.7600,-49.1400,-25.9700,999.1485,-6.4159,-4.2671,6.0662,1590578584,N
89,2125363,-2.4814,-3.8070,6.3266,-39.7600,55.7900,83.7200,999.1487,-6.8984,-4.0969,5.6390,1590578584,N
90,2126388,-5.6638,-2.1033,5.4245,36.6100,65.8000,31.2900,999.1491,-7.4494,-3.4547,5.3612,1590578584,N
89,2129023,-6.4511,-0.7513,3.5653,3.0100,-72.1000,-53.6900,999.1486,-6.8502,-3.5537,6.0511,1590578584,N
89,2130174,-6.6855,-4.1133,7.2861,9.9400,-54.1800,-52.2200,999.1486,-6.1009,-3.8265,6.6564,1590578584,N
90,2129553,-6.7334,-4.3669,7.3555,-38.1500,57.6100,97.1600,999.1483,-7.0871,-3.4535,5.8323,1590578585,N
89,2129637,-8.3390,-0.3254,3.2590,11.5500,35.1400,37.1000,999.1485,-7.9099,-2.4823,5.2386,1590578585,N
89,2130579,-8.3103,-1.5410,4.7856,43.6100,-81.4100,-75.8100,999.1486,-7.0309,-2.6200,6.3144,1590578585,N
89,2128485,-4.5894,-5.7117,7.2622,-58.7300,-68.2500,-40.2500,999.1482,-6.0291,-3.7032,6.7902,1590578585,N
89,2124674,-4.1922,-5.2881,8.5639,4.0600,80.9900,42.4200,999.1480,-6.5289,-3.6179,6.3604,1590578585,N
89,2126166,-8.7194,-2.2205,3.1346,12.3200,75.6000,73.8500,999.1475,-7.8486,-2.8989,5.1153,1590578585,N
89,2129613,-6.7860,-0.3230,3.9936,-23.6600,-66.4300,-61.1100,999.1461,-7.2477,-3.1811,5.7899,1590578585,N
88,2130893,-5.2259,-6.3362,7.2550,0.7000,-72.4500,-81.6200,999.1454,-6.0365,-3.9693,6.6314,1590578585,N
88,2130048,-9.7914,-6.1974,9.5545,-26.3900,70.0000,95.1300,999.1462,-7.0997,-3.5455,5.7615,1590578585,N
88,2130153,-6.3075,0.1220,2.9791,40.1100,75.2500,47.4600,999.1467,-7.9610,-2.5161,5.1441,1590578585,N
88,2131893,-8.3007,-1.3926,3.7615,28.4200,-66.9900,-82.1100,999.1468,-7.2821,-2.7476,5.9659,1590578586,N
87,2130679,-7.2838,-6.5324,6.8554,-4.9700,-40.8100,-28.1400,999.1467,-6.7672,-3.2424,6.3137,1590578586,N
88,2128995,-6.2788,-4.3765,6.3338,-25.7600,71.4000,79.2400,999.1470,-7.5176,-3.0950,5.4842,1590578586,N
87,2130158,-7.4680,-0.3996,2.6177,29.8200,57.2600,10.0800,999.1472,-8.0379,-2.5385,5.0118,1590578586,N
87,2132625,-7.6379,-2.1488,4.6253,16.2400,-66.7100,-92.8200,999.1472,-7.2044,-3.0139,5.9316,1590578586,N
86,2132350,-8.5256,-6.8985,8.0853,-31.9900,-39.3400,-67.9700,999.1470,-6.5786,-3.8087,6.1956,1590578586,N
87,2131260,-6.2333,-3.8979,6.9081,1.6100,96.6000,98.9100,999.1467,-7.4938,-3.2238,5.4425,1590578586,N
87,2132546,-7.4345,-2.1655,0.9356,-8.7500,21.1400,41.3000,999.1471,-8.1738,-3.0129,4.5036,1590578586,N
86,2135077,-7.3914,-1.5601,4.6971,-0.5600,-106.5400,-77.2800,999.1472,-7.2581,-3.3574,5.6760,1590578586,N
85,2134021,-7.1354,-7.2359,8.3725,-3.3600,-41.2300,-24.9900,999.1463,-6.6499,-3.7953,6.1275,1590578586,N
86,2132215,-6.3864,-4.5416,7.2718,-18.5500,78.5400,82.9500,999.1461,-7.3785,-3.4508,5.4608,1590578587,N
86,2132645,-10.0929,-5.0297,-1.4548,58.3800,62.3000,26.3200,999.1461,-8.1843,-3.1784,4.3688,1590578587,N
85,2136097,-6.3601,-2.3761,4.5368,5.6000,-93.0300,-77.9100,999.1458,-7.1872,-3.7874,5.4927,1590578587,N
85,2136339,-6.9846,-7.2861,7.3555,-15.4700,-50.1900,-88.9700,999.1452,-6.2280,-4.6655,5.9679,1590578587,N
85,2135128,-6.3553,-7.0349,7.5781,-8.0500,110.2500,130.2700,999.1448,-7.4808,-3.9276,4.9783,1590578587,N
85,2135487,-6.3745,-0.4738,2.1105,40.3900,80.2200,83.7900,999.1450,-8.5238,-2.6208,4.0800,1590578587,N
84,2137142,-8.1811,-1.3496,2.7494,7.8400,-93.5900,-49.5600,999.1451,-7.8638,-2.9885,5.0399,1590578587,N
85,2135866,-14.6656,-6.4630,8.2170,-50.1200,-49.9800,-7.7700,999.1453,-7.6282,-3.3875,5.1483,1590578587,N
84,2133823,-8.0949,-6.1687,7.3101,-35.7700,42.7000,85.4000,999.1465,-8.1964,-3.0083,4.4653,1590578587,N
84,2133417,-8.8152,-4.1946,-2.0459,38.0800,8.2600,54.2500,999.1475,-8.8286,-2.8661,3.1641,1590578587,N
83,2137408,-5.9916,-0.7418,6.1615,7.4900,-94.9200,-75.7400,999.1478,-7.9253,-3.5464,4.5588,1590578588,N
84,2138065,-6.3745,-5.7308,7.5398,5.2500,-72.8700,-90.5100,999.1473,-6.7396,-4.4667,5.5495,1590578588,N
84,2135969,-6.9870,-7.3866,10.4255,-28.9100,79.3800,95.7600,999.1461,-7.5193,-3.9743,4.8822,1590578588,N
84,2134900,-4.5870,-1.0983,1.3878,22.4000,102.2000,89.1100,999.1459,-8.6861,-2.7288,3.6436,1590578588,N
84,2137208,-7.2191,-1.5266,2.6058,-31.6400,-80.3600,-39.9000,999.1460,-8.1682,-3.2911,4.3151,1590578588,N
83,2135038,-5.7500,-6.1735,7.7192,6.7900,-60.2000,-58.1000,999.1460,-7.1696,-4.1102,5.2796,1590578588,N
83,2132621,-8.3414,-6.5803,7.8102,-18.3400,50.4700,51.8000,999.1458,-7.6365,-3.8589,4.7920,1590578588,N
83,2131907,-6.0897,-0.8040,4.9340,10.2900,75.1800,54.1100,999.1453,-8.3744,-2.9018,4.1976,1590578588,N
83,2134660,-7.8532,-2.4168,3.1968,18.3400,-33.8800,-43.8200,999.1445,-8.0139,-3.2221,4.6439,1590578588,N
82,2135880,-6.1256,-5.6518,5.9605,18.3400,-62.0900,-92.3300,999.1431,-6.8055,-4.2427,5.6440,1590578588,N
83,2135009,-7.1498,-6.5755,7.9705,-24.0800,59.7100,81.8300,999.1416,-7.4864,-3.8757,5.0104,1590578589,N
83,2134357,-7.1976,-2.6106,3.3858,35.1400,82.5300,64.6800,999.1406,-8.3473,-3.0080,4.1766,1590578589,N
82,2136480,-6.6209,-0.9667,3.0556,2.3800,-72.5900,-27.0200,999.1400,-7.8963,-3.1228,4.9058,1590578589,N
82,2136790,-7.1426,-5.7141,8.3103,-26.7400,-63.4200,-53.6900,999.1387,-7.0130,-3.8827,5.6491,1590578589,N
82,2134477,-7.0804,-5.2283,6.5492,-4.3400,60.2000,61.9500,999.1383,-7.6323,-3.5138,5.0569,1590578589,N
82,2134711,-6.2046,-0.7585,2.8164,21.8400,45.6400,29.1900,999.1385,-8.1747,-2.8391,4.6135,1590578589,N
82,2137281,-6.7645,-2.1057,4.2329,23.5900,-55.7200,-61.8800,999.1390,-7.4762,-3.2107,5.4744,1590578589,N
81,2137896,-6.9129,-5.9055,7.0181,0.5600,-59.9200,-84.0000,999.1401,-6.4743,-3.9656,6.2071,1590578589,N
82,2136239,-7.1498,-6.5372,8.5998,-21.0700,62.0200,101.4300,999.1428,-7.3247,-3.5406,5.4756,1590578589,N
81,2136022,-6.7310,-1.0050,1.5505,21.1400,82.7400,87.0800,999.1453,-8.5032,-2.4841,4.2064,1590578589,N
81,2139146,-7.8604,-0.8375,3.0485,-4.1300,-83.2300,-44.1000,999.1467,-7.9243,-2.7824,5.0630,1590578590,N
81,2139343,-4.7569,-3.9482,5.0943,-59.0100,-94.8500,-51.0300,999.1473,-6.9190,-3.7619,5.8434,1590578590,N
81,2135983,-7.6762,-5.9940,8.3964,-28.7700,24.7800,70.8400,999.1479,-7.3732,-3.5175,5.4252,1590578590,N
81,2135713,-13.3926,-0.3039,2.8953,20.7200,82.5300,60.0600,999.1486,-8.4466,-2.3941,4.3697,1590578590,N
81,2138318,-6.8530,0.2680,4.3095,-6.3000,-52.8500,-49.0700,999.1489,-7.9590,-2.5584,5.1264,1590578590,N
80,2139107,-5.8528,-6.5037,8.1978,-11.3400,-69.5800,-96.4600,999.1487,-6.6353,-3.6644,6.2221,1590578590,N
81,2137669,-7.4704,-7.2383,6.0945,-10.7100,41.5800,22.4000,999.1488,-7.0040,-3.8158,5.7057,1590578590,N
80,2136940,-5.9677,-2.6512,5.9151,39.2700,116.7600,115.7800,999.1490,-8.2203,-2.6107,4.6671,1590578590,N
80,2138127,-8.9755,-1.1414,0.7107,60.4100,-14.6300,5.1800,999.1481,-8.5861,-2.3444,4.1175,1590578590,N
79,2139734,-6.5731,-1.8138,6.7454,43.1200,-102.6200,-99.1900,999.1476,-7.1736,-2.8534,6.0472,1590578590,N
80,2137518,-8.3629,-4.5488,7.7647,-15.9600,22.1900,5.3900,999.1470,-7.3301,-2.9784,5.7939,1590578591,N
79,2134649,-6.2548,-3.0700,4.1133,-55.1600,62.4400,67.9000,999.1469,-8.1924,-2.7457,4.6386,1590578591,N
80,2135943,-7.7121,-1.5649,3.4193,-20.3000,-18.6200,-17.1500,999.1473,-8.1072,-2.8707,4.7120,1590578591,N
78,2137185,-6.7023,-4.1204,4.5009,9.1700,-83.0900,-117.8100,999.1483,-6.9201,-3.9669,5.7050,1590578591,N
80,2136010,-7.5876,-9.0640,9.0544,-25.4800,25.1300,12.8800,999.1486,-6.9566,-4.2438,5.4558,1590578591,N
79,2133841,-5.3121,-2.8786,3.8955,-2.5200,92.6100,123.6900,999.1495,-8.1700,-3.2017,4.3784,1590578591,N
79,2135012,-7.3173,-1.6774,1.8018,8.4700,-16.1000,15.7500,999.1501,-8.3205,-2.9846,4.2464,1590578591,N
79,2135893,-7.3579,-3.9147,6.1161,31.2900,-59.5700,-93.4500,999.1504,-7.2900,-3.7257,5.3987,1590578591,N
79,2130902,-8.7864,-5.8983,7.1186,-11.9000,8.4700,-1.1900,999.1520,-7.2865,-3.8768,5.2960,1590578591,N
79,2125057,-6.3051,-1.8305,4.4100,-13.9300,56.5600,71.3300,999.1530,-8.0704,-3.1549,4.5920,1590578591,N
79,2127349,-8.0877,-3.5868,1.3831,36.4000,28.6300,-30.3100,999.1536,-8.2903,-3.4237,3.9648,1590578592,N
79,2129910,-5.7308,-2.3713,3.9147,5.6000,-75.6700,-98.3500,999.1539,-7.3006,-4.2217,5.0048,1590578592,N
79,2126566,-6.8985,-8.7936,8.6094,-75.2500,-33.1100,18.2700,999.1542,-6.9613,-4.7647,5.0008,1590578592,N
78,2119997,-7.2550,-3.7161,4.8239,-5.9500,96.5300,130.7600,999.1545,-8.1829,-3.5596,4.0670,1590578592,N
79,2122967,-6.4822,-0.5838,0.6963,11.2000,-9.8000,19.1100,999.1550,-8.4734,-3.1108,3.8333,1590578592,N
79,2125473,-5.8983,-4.2233,5.0321,-3.0100,-114.8000,-96.9500,999.1546,-7.0854,-4.3346,5.2134,1590578592,N
79,2122963,-7.9944,-7.7767,8.1739,-56.2100,-36.0500,15.4700,999.1553,-6.8125,-4.7176,5.2444,1590578592,N
78,2119571,-5.2020,-2.5723,6.0132,-15.3300,80.0100,91.7000,999.1561,-7.7367,-3.8386,4.6452,1590578592,N
79,2122631,-7.2215,-2.0865,1.8879,46.0600,8.9600,-48.2300,999.1567,-7.7168,-3.8728,4.6500,1590578592,N
78,2125199,-3.4887,-4.7521,6.0897,17.9200,-75.8800,-134.5400,999.1569,-6.1024,-5.0064,5.8196,1590578592,N
78,2122960,-8.3797,-8.7601,9.6239,-35.2100,30.3100,74.8300,999.1571,-6.6282,-4.7974,5.4058,1590578593,N
78,2122430,-5.0465,-0.5527,2.5460,58.4500,117.0400,83.6500,999.1580,-7.9845,-3.3300,4.6183,1590578593,N
79,2126036,-7.5996,-3.4672,2.9719,-24.9900,-66.4300,-44.0300,999.1597,-7.5736,-3.9428,4.8234,1590578593,N
78,2127039,-6.1376,-6.0730,7.1761,-5.4600,-75.1800,-62.3700,999.1603,-6.5415,-4.6489,5.6363,1590578593,N
78,2123448,-8.1882,-6.7382,6.7023,-9.3100,52.6400,61.2500,999.1611,-7.1826,-4.3211,5.0901,1590578593,N
78,2123984,-7.9729,-1.9789,3.1274,21.3500,70.0000,44.8000,999.1617,-8.0129,-3.5475,4.4021,1590578593,N
79,2127201,-5.0560,-1.9597,2.8929,-6.9300,-64.8900,-60.2000,999.1619,-7.3506,-4.0676,5.0590,1590578593,N
78,2128502,-7.3244,-6.9607,5.6853,-16.8700,-71.8900,-69.3000,999.1619,-6.4332,-4.8822,5.5632,1590578593,N
78,2126029,-7.0588,-6.5731,7.0253,-16.8000,54.8800,110.8800,999.1621,-7.3056,-4.2519,4.9718,1590578593,N
77,2127103,-6.9607,-1.1438,2.2516,28.7700,53.4100,61.1800,999.1618,-8.1625,-3.2510,4.3560,1590578593,N
78,2129476,-5.9701,-0.9380,2.5484,-5.1100,-92.1900,-64.4000,999.1618,-7.4298,-3.6767,5.2393,1590578594,N
77,2129453,-6.8028,-6.9248,7.4512,-11.3400,-61.1100,-54.8100,999.1611,-6.5427,-4.3774,5.8483,1590578594,N
77,2122183,-8.9013,-6.9918,7.3627,-16.8700,68.1100,85.6800,999.1608,-7.4272,-3.9122,5.0697,1590578594,N
77,2122076,-7.6140,-0.9523,1.3376,-0.1400,60.9700,64.8900,999.1602,-8.3990,-3.0118,4.0690,1590578594,N
78,2126570,-6.3482,-2.1703,3.3452,-30.6600,-90.3700,-64.6800,999.1600,-7.5956,-3.8093,4.8955,1590578594,N
77,2128375,-6.6808,-6.8650,7.2670,-10.6400,-63.0700,-97.0900,999.1601,-6.4482,-4.8167,5.6027,1590578594,N
77,2126483,-7.7360,-7.2072,7.6044,2.8000,86.9400,104.4400,999.1608,-7.4624,-4.0863,4.8770,1590578594,N
78,2127549,-7.2335,-1.3998,2.3737,37.6600,91.2800,63.1400,999.1612,-8.4685,-2.9862,3.9417,1590578594,N
77,2130042,-7.7025,-1.1390,2.0100,5.3200,-68.7400,-68.2500,999.1611,-7.9076,-3.4599,4.6551,1590578594,N
77,2130447,-6.2501,-5.6088,6.1328,-4.1300,-64.6100,-73.5700,999.1606,-6.8243,-4.3907,5.5064,1590578594,N
77,2125984,-7.8078,-6.8985,5.6566,-17.3600,41.2300,64.2600,999.1608,-7.3984,-4.1514,4.9193,1590578595,N
78,2126651,-6.8530,-1.0385,3.5701,-5.1100,46.2700,49.3500,999.1615,-8.0855,-3.3781,4.4026,1590578595,N
77,2129854,-6.7860,-1.7420,3.1083,4.3400,-52.2900,-66.8500,999.1614,-7.5247,-3.8042,5.0077,1590578595,N
77,2130979,-9.4301,-7.1545,7.1354,40.7400,-16.8700,-102.0600,999.1617,-6.7418,-4.4359,5.5715,1590578595,N
77,2128600,-6.9775,-6.5755,6.5707,-6.7200,60.7600,107.3800,999.1614,-7.5890,-3.8368,4.8843,1590578595,N
77,2128596,-6.8363,-0.7131,2.1153,29.3300,42.0000,52.2200,999.1608,-8.2761,-2.9387,4.3635,1590578595,N
77,2130327,-8.4395,-2.1416,3.1681,-6.5100,-88.3400,-70.2100,999.1603,-7.6752,-3.4343,5.0466,1590578595,N
77,2129178,-7.6786,-6.1232,6.9057,1.6100,-43.7500,-78.1900,999.1588,-6.8393,-4.1596,5.6650,1590578595,N
77,2119777,-7.7312,-6.4822,5.7835,-17.9200,43.9600,77.0700,999.1578,-7.5106,-3.8468,4.9963,1590578595,N
77,2118644,-6.6736,-0.9452,4.3478,-0.5600,59.8500,74.2700,999.1573,-8.3244,-2.8799,4.3107,1590578595,N
77,2123560,-6.4965,-2.2277,2.4718,-21.0000,-61.9500,-43.3300,999.1562,-7.8524,-3.4295,4.7696,1590578596,N
77,2125236,-4.0558,-6.1496,7.8700,-25.7600,-85.7500,-98.2800,999.1550,-6.1097,-4.7706,6.0069,1590578596,N
77,2122690,-5.4604,-7.4130,6.9990,11.6200,79.9400,96.7400,999.1541,-6.9592,-4.2594,5.4404,1590578596,N
77,2123211,-6.8770,-0.6867,3.1729,25.4100,61.3200,53.9000,999.1538,-7.8294,-3.2896,4.9040,1590578596,N
77,2125632,-7.3388,-2.4742,3.2303,4.2700,-65.5900,-83.7200,999.1532,-7.0927,-3.8839,5.5479,1590578596,N
77,2125513,-7.1186,-6.3601,7.8820,-11.5500,-69.5800,-71.8200,999.1533,-6.1209,-4.5425,6.1701,1590578596,N
77,2117971,-8.4754,-6.7358,6.8411,-10.1500,40.2500,49.2100,999.1530,-6.6998,-4.3681,5.6747,1590578596,N
77,2112820,-6.8842,-2.6752,5.2307,8.1200,80.2200,57.2600,999.1529,-7.5634,-3.6262,5.0810,1590578596,N
77,2117041,-6.4534,-2.1033,2.1703,15.4700,-31.2200,-45.7800,999.1520,-7.3021,-3.8625,5.2850,1590578596,N
77,2120717,-7.2694,-6.6999,5.7763,5.3200,-66.7800,-101.7800,999.1513,-6.2369,-4.7171,5.9178,1590578596,N
76,2119010,-6.3625,-8.6788,8.1284,-14.0700,45.5000,89.3200,999.1501,-6.8373,-4.4244,5.4632,1590578597,N
77,2119474,-10.5811,-2.5005,2.3426,-31.0100,65.9400,100.3100,999.1495,-8.0978,-3.5666,4.2278,1590578597,N
76,2122808,-5.6375,0.5264,2.7733,38.2200,-31.4300,-36.8200,999.1495,-7.8676,-3.2110,4.8950,1590578597,N
77,2125075,-8.9874,-6.5539,6.0826,-23.8700,-108.7100,-120.4000,999.1491,-6.5088,-4.4305,5.8461,1590578597,N
76,2120674,-5.9151,-7.8078,8.0183,-14.6300,-3.5700,-6.2300,999.1495,-6.2455,-4.7534,5.8796,1590578597,N
77,2112172,-5.4676,-4.5200,6.0538,-1.1200,83.7200,104.0900,999.1501,-7.1286,-4.1309,5.3188,1590578597,N
76,2113607,-6.7119,-2.3282,2.7063,35.9800,8.7500,-17.0800,999.1503,-7.2487,-3.9630,5.2841,1590578597,N
76,2117207,-6.7621,-5.3958,5.9438,35.4900,-55.6500,-127.4000,999.1492,-6.1072,-4.7328,6.0393,1590578597,N
76,2116551,-8.7506,-10.0762,8.3725,-26.8800,6.2300,23.7300,999.1483,-6.2363,-4.9245,5.7469,1590578597,N
76,2115519,-5.9533,-4.1515,5.8241,-9.1700,106.2600,147.5600,999.1479,-7.5529,-3.9125,4.8802,1590578597,N
76,2119538,-7.3843,-1.2227,0.7920,13.7900,14.0000,10.7800,999.1486,-8.0051,-3.6168,4.3598,1590578598,N
76,2122783,-6.4654,-4.1061,4.7593,12.1800,-96.0400,-101.1500,999.1491,-6.8206,-4.4917,5.4291,1590578598,N
76,2120499,-8.3844,-7.2670,7.5350,-27.2300,-15.5400,-21.9800,999.1492,-6.5422,-4.8824,5.4343,1590578598,N
76,2114693,-6.0993,-5.0680,5.9246,-25.4100,36.1200,93.4500,999.1495,-7.1176,-4.4529,5.0676,1590578598,N
76,2115338,-6.9727,-3.1825,1.7372,22.6100,6.5100,14.7700,999.1503,-7.4500,-4.2455,4.7586,1590578598,N
76,2118572,-5.8026,-2.9336,4.7856,2.0300,-94.2900,-77.1400,999.1509,-6.4356,-4.7697,5.6572,1590578598,N
76,2118621,-4.3143,-9.0042,6.9535,-15.4000,-39.6900,-56.4900,999.1512,-5.5511,-5.5083,5.9173,1590578598,N
75,2116304,-3.7663,-5.3504,6.6042,4.6900,100.8700,136.5700,999.1508,-6.4907,-4.8160,5.5541,1590578598,N
75,2118045,-6.7406,-1.7444,2.0530,38.6400,78.2600,56.6300,999.1505,-7.5780,-3.9235,4.8323,1590578598,N
75,2121536,-8.2098,-2.7063,2.9815,-0.9800,-75.4600,-60.6200,999.1503,-7.1669,-4.2558,5.1667,1590578598,N
75,2121387,-8.1835,-5.5920,6.2788,-8.7500,-42.9100,-49.9100,999.1506,-6.6051,-4.7140,5.5066,1590578599,N
