0,2369125,0.6485,2.0243,9.6526,135.2400,-110.1100,-44.2400,999.2537,0.6434,2.0085,9.5772,1590577090,N
0,2397276,0.6389,1.8233,9.4205,-3.2900,-2.1000,2.7300,999.2512,0.6619,1.9677,9.5844,1590577091,N
0,2397491,0.6652,1.8377,9.6072,-1.1200,0.7000,-1.4700,999.2491,0.6535,1.9264,9.5933,1590577091,N
0,2397756,0.7370,1.7827,9.5521,-2.3800,-0.2800,0.9100,999.2473,0.6712,1.8780,9.6017,1590577091,N
0,82725,0.7059,1.8329,9.5450,2.0300,-1.4000,-1.3300,999.2462,0.6930,1.9095,9.5940,1590577091,N
0,2147483647,0.6006,1.8449,9.5641,-1.4700,1.1200,0.5600,999.2451,0.6636,1.8707,9.6037,1590577091,N
0,2147483647,0.5767,1.7492,9.6048,1.6100,-0.1400,1.4700,999.2444,0.6515,1.8600,9.6066,1590577091,N
0,1124442,0.6772,1.9741,9.6646,2.8000,-0.1400,-0.1400,999.2430,0.6608,1.9067,9.5968,1590577091,N
0,1148463,0.6317,1.9286,9.5928,0.4200,-0.1400,-0.2800,999.2420,0.6566,1.9173,9.5949,1590577091,N
0,1764498,0.7107,1.8497,9.6503,-2.0300,0.0700,1.6800,999.2415,0.6649,1.8783,9.6021,1590577091,N
0,1859562,0.5527,1.7898,9.6574,-0.1400,0.6300,-0.9800,999.2415,0.6352,1.8539,9.6088,1590577091,N
0,1861488,0.6556,1.8401,9.6431,-1.3300,0.2800,0.5600,999.2421,0.6349,1.8331,9.6129,1590577092,N
0,1859799,0.6556,1.8425,9.6814,1.7500,0.0700,-1.2600,999.2417,0.6389,1.8505,9.6093,1590577092,N
0,1860459,0.6652,1.8951,9.7866,0.9800,0.4200,-0.1400,999.2415,0.6393,1.8564,9.6081,1590577092,N
0,2016113,0.6365,1.7874,9.6000,3.7800,-0.4200,-0.2100,999.2419,0.6482,1.8828,9.6024,1590577092,N
0,2038081,0.5719,1.7348,9.6670,-0.4200,0.5600,-0.1400,999.2419,0.6267,1.8421,9.6117,1590577092,N
0,1985834,0.6054,1.7946,9.5928,1.3300,-0.7000,0.7000,999.2431,0.6316,1.8525,9.6094,1590577092,N
0,1977141,0.6078,1.9095,9.5737,-1.9600,0.5600,0.7000,999.2443,0.6201,1.8380,9.6129,1590577092,N
0,1976811,0.4881,1.3017,9.7101,1.1900,0.9800,0.4900,999.2460,0.5886,1.7260,9.6356,1590577092,N
0,1977780,0.6676,1.9454,9.6168,2.3100,-0.8400,0.1400,999.2477,0.6151,1.7995,9.6205,1590577092,N
0,1978557,0.5695,1.9358,9.5976,-2.4500,0.2100,0.9100,999.2498,0.6017,1.7985,9.6215,1590577092,N
0,1979763,0.5958,1.8688,9.6287,0.0700,-0.0700,-1.1200,999.2518,0.6000,1.8161,9.6183,1590577093,N
0,1978474,0.6269,1.9095,9.6383,0.1400,-0.2800,-0.4200,999.2529,0.6071,1.8393,9.6135,1590577093,N
0,1974744,0.6102,1.8473,9.5976,-1.4000,0.2800,0.3500,999.2540,0.6038,1.8243,9.6165,1590577093,N
0,1972984,0.5934,1.8544,9.6144,-0.0700,0.2800,-0.5600,999.2546,0.5986,1.8274,9.6163,1590577093,N
0,1972641,0.6820,1.8760,9.6550,-1.8900,-0.2100,-0.1400,999.2556,0.6134,1.8217,9.6164,1590577093,N
0,1973228,0.6365,1.7827,9.5569,-2.2400,-0.4900,-2.5900,999.2561,0.6175,1.8095,9.6185,1590577093,N
0,1974187,0.5575,1.8808,9.6670,-0.3500,0.2100,-0.4900,999.2559,0.6022,1.8172,9.6180,1590577093,N
0,1975476,0.6413,1.9023,9.7005,-0.8400,-0.1400,-0.6300,999.2558,0.6081,1.8266,9.6158,1590577093,N
0,1977126,0.6078,1.8664,9.6838,-3.1500,0.2800,0.4200,999.2560,0.6006,1.7987,9.6216,1590577093,N
0,1976985,0.7298,2.0124,9.7149,3.3600,-1.7500,-0.0700,999.2552,0.6441,1.8893,9.6014,1590577093,N
0,1973966,0.5623,1.9023,9.6574,-2.5200,0.2100,1.0500,999.2543,0.6229,1.8621,9.6081,1590577094,N
0,1972705,0.6748,1.8281,9.7795,4.5500,-0.8400,0.2800,999.2534,0.6453,1.8991,9.5994,1590577094,N
0,1973026,0.6173,1.8832,9.5713,-1.1200,-0.7000,0.8400,999.2520,0.6455,1.8937,9.6004,1590577094,N
0,1973509,0.6197,1.8832,9.7603,7.8400,-1.1900,0.2100,999.2506,0.6603,1.9704,9.5839,1590577094,N
0,1975135,0.6365,1.8066,9.6431,-0.6300,-0.2100,1.4000,999.2496,0.6577,1.9294,9.5925,1590577094,N
0,1976644,0.6126,1.7228,9.6718,2.4500,-0.2100,1.7500,999.2496,0.6557,1.9061,9.5973,1590577094,N
0,1978591,0.6485,1.7252,9.6431,3.0800,-0.3500,0.0700,999.2498,0.6622,1.9005,9.5979,1590577094,N
0,1978735,0.6604,1.8329,9.6072,3.4300,-0.7000,-0.7000,999.2501,0.6725,1.9281,9.5917,1590577094,N
0,1975816,0.6365,1.9310,9.6335,0.9100,0.9800,-0.6300,999.2501,0.6569,1.9248,9.5934,1590577094,N
0,1975656,0.6078,1.8999,9.5952,2.1700,-0.0700,-0.2800,999.2503,0.6505,1.9410,9.5906,1590577094,N
0,1976763,0.6126,1.8281,9.6598,0.9800,0.0700,0.5600,999.2517,0.6437,1.9232,9.5947,1590577095,N
0,1977873,0.6580,1.9478,9.6311,-1.5400,0.2100,-0.2800,999.2528,0.6417,1.9108,9.5973,1590577095,N
0,1979875,0.5934,2.0506,9.7077,-0.9100,-2.3800,-0.7700,999.2528,0.6494,1.9573,9.5874,1590577095,N
0,1983308,0.0933,2.0602,10.3777,4.2700,-11.6200,1.8200,999.2527,0.6426,2.1695,9.5421,1590577095,N
0,1988640,-0.9212,1.0074,12.0024,-13.7200,-49.7700,-12.8800,999.2521,0.8490,3.4590,9.1370,1590577095,N
0,1988435,1.2730,0.6269,10.9783,-35.7700,-111.7900,-41.7900,999.2513,1.6982,3.8493,8.8583,1590577095,N
0,1982256,4.1898,0.6461,7.3077,-1.6800,-83.0900,-57.6800,999.2507,2.4277,4.1277,8.5580,1590577095,N
0,1971069,5.9581,1.0481,7.6786,-35.7000,-65.5200,-16.1000,999.2507,3.3456,3.3586,8.5847,1590577095,N
0,1962432,6.7789,0.4857,6.0826,-28.2800,-49.8400,-16.7300,999.2508,4.1186,2.7944,8.4498,1590577095,N
0,1955295,6.8818,0.4881,6.8578,-21.2800,-12.3900,-11.4100,999.2508,4.4133,2.2384,8.4666,1590577095,N
0,1950197,6.6879,-1.1797,7.4536,-14.7700,-5.8800,-11.4800,999.2501,8.8840,3.3084,2.5099,1590577096,N
0,1946585,6.4415,-0.0526,7.4847,-18.7600,-11.4800,-8.0500,999.2495,9.0860,2.6483,2.5694,1590577096,N
0,1940618,6.6473,-0.2441,6.8602,-17.0100,-13.0900,-7.9800,999.2496,9.2618,2.1081,2.4382,1590577096,N
0,1930757,7.2287,-0.5982,6.4678,-12.3900,-10.1500,-3.4300,999.2500,9.4072,1.6035,2.2591,1590577096,N
0,1922968,6.7549,-0.8853,7.2909,-5.8100,-8.5400,-7.2100,999.2496,9.4447,1.1633,2.3695,1590577096,N
0,1917391,6.9105,-0.5336,7.1426,3.7800,-17.4300,-8.5400,999.2488,9.4945,0.9100,2.2797,1590577096,N
0,1913553,7.4560,-0.0861,6.1902,-10.9900,-26.3200,2.7300,999.2483,9.5710,0.6948,2.0208,1590577096,N
0,1910787,7.9657,-0.0502,5.6638,3.1500,-16.1000,25.2000,999.2479,9.6008,0.3851,1.9615,1590577096,N
0,1908460,7.9825,-1.2706,5.7452,7.0000,-4.4800,19.6700,999.2479,9.1130,-0.0924,3.6214,1590577096,N
0,1902971,5.2355,-0.0790,6.8889,-13.8600,-9.2400,-11.3400,999.2483,9.1771,-0.0414,3.4567,1590577096,N
0,1895228,7.7743,-1.7420,5.5466,-6.9300,-19.6000,-5.3200,999.2487,8.8444,-0.3813,4.2192,1590577097,N
0,1885888,7.5948,-2.0028,5.3145,19.1100,-8.4000,-3.2900,999.2501,8.5205,-0.6506,4.8113,1590577097,N
0,1879263,8.5591,-0.4905,5.1470,7.7000,-16.3100,2.6600,999.2505,8.5208,-0.6049,4.8167,1590577097,N
0,1881337,8.3797,-1.1007,5.1757,9.5900,-8.8900,-0.4900,999.2505,8.4460,-0.6679,4.9385,1590577097,N
0,1879562,8.3294,-0.9404,5.1565,19.2500,-4.3400,9.3100,999.2509,8.1605,-0.7220,5.3902,1590577097,N
0,1893353,8.4108,-0.1460,4.8024,9.4500,-6.6500,-1.3300,999.2509,8.1420,-0.5654,5.4368,1590577097,N
0,1960994,8.2217,-0.2536,4.9986,-11.6200,5.3200,-8.4700,999.2515,8.4365,-0.4861,4.9758,1590577097,N
0,1955691,8.6237,-0.1149,4.9819,0.9800,0.1400,1.3300,999.2529,8.4119,-0.4172,5.0236,1590577097,N
0,1943815,8.3103,-0.7729,5.1254,5.8100,6.7200,-3.2900,999.2538,8.3561,-0.4500,5.1130,1590577097,N
0,1922238,8.5041,-0.2106,5.1924,27.2300,16.5900,-3.5000,999.2549,7.7897,-0.2882,5.9505,1590577097,N
0,1917518,8.1260,0.0526,5.4126,30.1000,33.8800,11.6900,999.2564,9.7494,-0.2341,1.0317,1590577098,N
0,1922343,7.9346,0.4929,6.0897,12.6000,3.9200,22.1900,999.2576,9.6580,-0.2442,1.6832,1590577098,N
0,1925067,7.7743,-0.4522,5.2164,-10.0100,1.8200,24.5000,999.2581,9.7402,-0.4483,1.0478,1590577098,N
0,1921827,4.7761,-2.4359,5.9079,-50.5400,38.0100,-34.0900,999.2582,7.6064,-0.6911,6.1510,1590577098,N
0,1919686,6.1807,0.2225,7.1378,49.9100,46.3400,48.7200,999.2573,5.2229,-0.4207,8.2895,1590577098,N
0,1916700,5.5466,-0.4522,7.3364,49.3500,64.0500,55.5100,999.2567,8.9598,-0.8078,3.9039,1590577098,N
0,1917293,6.5515,-0.5599,7.2407,36.6800,79.8700,61.6700,999.2554,8.5102,-0.9648,4.7765,1590577098,N
0,1921821,5.8959,-0.8518,10.4112,24.2200,19.3200,-0.9800,999.2548,8.3884,-0.8247,5.0125,1590577098,N
0,1933605,5.6973,-0.3733,12.4020,20.7900,-105.5600,-39.0600,999.2548,9.0727,-0.5522,3.6812,1590577098,N
0,1936739,5.4772,-0.1555,7.9274,43.3300,-195.3000,-30.6600,999.2547,9.4810,-0.2683,2.4919,1590577098,N
0,1933199,7.2239,1.2706,1.5960,27.7200,-147.0000,-33.6700,999.2538,9.5491,0.2275,2.2212,1590577099,N
0,1929071,10.0714,0.5767,-0.2824,40.6000,-95.5500,-79.1000,999.2523,9.6267,1.0437,1.5520,1590577099,N
0,1924435,7.9633,4.2903,-0.7035,-6.5100,-4.6200,-117.0400,999.2513,9.3126,2.5277,1.7483,1590577099,N
0,1922593,7.2574,7.1019,1.1462,-17.4300,71.6100,-32.2000,999.2508,8.7323,3.7038,2.4900,1590577099,N
0,1927678,9.0473,5.7021,3.2758,22.4700,30.5900,34.8600,999.2508,8.6671,3.7544,2.6374,1590577099,N
0,1927681,7.0971,3.9936,2.5771,40.2500,78.5400,34.1600,999.2517,8.3590,4.0813,3.1049,1590577099,N
0,1921892,7.9801,3.5438,1.1222,-31.1500,3.8500,31.8500,999.2521,8.5860,3.7071,2.9509,1590577099,N
0,1919004,9.6191,2.7924,5.4485,-24.7800,12.5300,31.3600,999.2530,8.6816,3.2260,3.2237,1590577099,N
0,1919747,8.9803,1.9047,3.2566,-19.6700,3.1500,9.2400,999.2540,8.8049,2.8028,3.2845,1590577099,N
0,1919965,9.2985,2.6369,4.5081,-20.6500,-17.0800,6.6500,999.2553,8.8597,2.5657,3.3307,1590577100,N
0,1916826,9.0832,1.6199,3.8764,-6.4400,-3.0800,0.3500,999.2559,8.8944,2.3337,3.4079,1590577100,N
0,1911337,8.7314,2.5699,3.6179,8.9600,-18.1300,-11.2700,999.2562,8.8924,2.4497,3.3308,1590577100,N
0,1901862,9.1358,2.8020,2.6536,7.0000,-11.3400,-3.5700,999.2567,8.9556,2.5336,3.0902,1590577100,N
0,1894941,8.9874,2.6345,3.0963,-1.5400,0.0700,0.2100,999.2576,8.9516,2.5453,3.0920,1590577100,N
0,1891347,9.1478,2.4191,3.2566,-2.0300,-0.9100,0.2100,999.2584,8.9580,2.5012,3.1096,1590577100,N
0,1889287,9.0138,2.4072,3.3117,-2.3800,0.8400,-0.6300,999.2589,8.9463,2.4795,3.1602,1590577100,N
0,1889016,9.0640,2.5460,3.3308,-0.4200,-1.3300,-1.8200,999.2592,8.9350,2.4936,3.1808,1590577100,N
0,1889167,8.9898,2.4072,3.0772,-2.3100,-0.6300,-1.6100,999.2593,8.9423,2.4821,3.1693,1590577100,N
0,1882988,9.0066,2.5196,3.1274,-2.9400,1.5400,-1.6800,999.2585,8.9323,2.4969,3.1859,1590577100,N
0,1877789,8.9898,2.5819,3.3643,-1.8200,0.3500,-1.5400,999.2579,8.9120,2.5156,3.2278,1590577100,N
0,1876511,8.9922,2.6800,3.3212,1.4700,-1.4700,-0.9800,999.2573,8.9039,2.5479,3.2248,1590577101,N
0,1876502,9.0257,2.5316,3.1250,1.4700,-1.4700,-0.7000,999.2557,8.9181,2.5463,3.1867,1590577101,N
0,1877942,9.0353,2.5484,3.0556,-0.4200,-0.0700,-0.0700,999.2558,8.9296,2.5429,3.1570,1590577101,N
0,1880056,9.0090,2.6345,3.2734,-0.5600,1.0500,0.2100,999.2560,8.9180,2.5538,3.1808,1590577101,N
0,1881267,8.9827,2.6082,3.2495,-1.7500,1.1200,-1.1200,999.2556,8.9047,2.5671,3.2072,1590577101,N
0,1875949,9.0209,2.5699,3.3021,-0.7000,-0.1400,-2.0300,999.2559,8.8955,2.5744,3.2268,1590577101,N
0,1872344,9.0568,2.6034,3.1944,1.5400,-2.3800,-0.7000,999.2575,8.9083,2.5758,3.1902,1590577101,N
0,1872522,9.0401,2.6010,3.1681,0.9800,-0.7700,-1.7500,999.2590,8.9095,2.5888,3.1763,1590577101,N
0,1873385,8.9850,2.7924,3.2590,2.2400,-2.8000,-1.6100,999.2603,8.9025,2.6315,3.1608,1590577101,N
0,1875377,8.9946,2.8116,3.0891,3.6400,-3.2200,0.2100,999.2609,8.9149,2.6594,3.1020,1590577101,N
0,1878031,9.2435,2.5125,2.6871,4.6900,-2.8700,2.0300,999.2617,8.9749,2.6122,2.9661,1590577102,N
0,1880526,8.9874,2.9432,3.2806,-4.6200,2.7300,0.2100,999.2619,8.9319,2.6616,3.0509,1590577102,N
0,1878400,9.1071,2.5531,2.8522,1.1900,-3.1500,0.4900,999.2614,8.9674,2.6263,2.9763,1590577102,N
0,1873772,8.9707,2.7470,3.1298,-0.7000,3.0100,-0.7000,999.2612,8.9395,2.6587,3.0309,1590577102,N
0,1872537,9.1238,2.6369,3.1202,-0.9800,1.2600,-0.9800,999.2609,8.9334,2.6534,3.0537,1590577102,N
0,1873263,8.9779,2.7015,3.2040,-0.1400,-0.6300,-0.1400,999.2603,8.9258,2.6565,3.0731,1590577102,N
0,1875317,9.0855,2.7182,3.1011,0.7700,0.1400,-0.4200,999.2602,8.9247,2.6653,3.0686,1590577102,N
0,1877879,9.0401,2.7254,3.1202,0.3500,-0.4200,0.3500,999.2599,8.9257,2.6667,3.0646,1590577102,N
0,1880639,9.0090,2.7541,3.1585,0.1400,0.4900,0.9100,999.2602,8.9206,2.6716,3.0752,1590577102,N
0,1882354,9.0688,2.6991,3.1394,-0.2800,0.2100,0.3500,999.2595,8.9211,2.6654,3.0789,1590577102,N
0,1877847,9.0281,2.7709,3.1729,0.2800,-0.4200,0.4900,999.2583,8.9177,2.6735,3.0817,1590577103,N
0,1875618,9.0377,2.6177,2.9982,-0.2800,-0.3500,0.7000,999.2568,8.9331,2.6515,3.0561,1590577103,N
0,1876291,9.0185,2.6177,3.0891,-0.9800,-0.0700,0.4200,999.2562,8.9374,2.6344,3.0583,1590577103,N
0,1877624,9.0257,2.6824,3.1585,0.1400,-0.7000,0.7700,999.2559,8.9378,2.6295,3.0613,1590577103,N
0,1879996,9.0927,2.6249,3.1944,-0.7700,-0.7000,-0.3500,999.2558,8.9368,2.6179,3.0742,1590577103,N
0,1882648,9.0449,2.6512,3.2303,1.0500,-1.8900,0.2100,999.2565,8.9379,2.6119,3.0761,1590577103,N
0,1884995,9.0616,2.5555,3.1561,-0.2800,-3.3600,0.9100,999.2568,8.9556,2.5766,3.0543,1590577103,N
0,1881281,9.2100,2.5914,3.0293,-0.5600,-4.8300,1.7500,999.2574,8.9880,2.5384,2.9905,1590577103,N
0,1879235,9.1095,2.5962,2.9432,-0.4900,-4.8300,-0.7700,999.2572,9.0058,2.5348,2.9395,1590577103,N
0,1880407,9.0712,2.8594,2.7805,3.8500,-3.6400,-1.3300,999.2574,9.0101,2.6017,2.8670,1590577103,N
0,1881672,9.2387,2.4550,2.5842,-0.8400,-0.2800,-0.1400,999.2568,9.0393,2.5671,2.8055,1590577104,N
0,1883836,8.9252,2.6728,2.6800,0.7700,-0.2800,2.5200,999.2562,9.0474,2.5746,2.7724,1590577104,N
0,1886354,9.3464,2.6249,2.8857,-4.1300,7.7000,1.6100,999.2560,9.0265,2.5698,2.8441,1590577104,N
0,1887891,9.0401,2.5220,3.1896,-4.1300,2.9400,3.5000,999.2554,9.0124,2.5266,2.9263,1590577104,N
0,1885000,9.0257,2.1679,2.9982,-12.0400,11.7600,13.3700,999.2548,9.0301,2.3530,3.0150,1590577104,N
0,1884224,9.1860,2.0650,3.4744,-11.0600,6.9300,6.7900,999.2543,9.0199,2.2228,3.1419,1590577104,N
0,1885521,9.0520,1.7874,3.6802,-3.6400,2.3800,1.6100,999.2536,9.0055,2.1155,3.2551,1590577104,N
0,1887061,9.0903,1.9621,3.4863,-0.9800,-1.7500,2.6600,999.2541,9.0168,2.0520,3.2645,1590577104,N
0,1889340,9.1932,1.8138,3.3188,-2.0300,3.2900,1.8200,999.2537,9.0226,1.9863,3.2889,1590577104,N
0,1891410,8.9970,1.9454,3.7926,-3.0100,2.6600,0.7700,999.2533,8.9852,1.9665,3.4013,1590577104,N
0,1889427,9.0401,1.8927,3.6993,-1.7500,-0.2800,1.8900,999.2530,8.9790,1.9271,3.4402,1590577105,N
0,1889110,9.1454,1.6822,3.4576,2.5200,-0.4900,0.4200,999.2531,8.9974,1.8748,3.4208,1590577105,N
0,1891450,8.9898,1.9119,3.7161,-0.7000,-1.6800,-2.8700,999.2530,8.9710,1.8965,3.4777,1590577105,N
0,1893557,9.1334,1.8353,3.4170,1.8900,-4.6200,-1.1200,999.2527,8.9956,1.8843,3.4203,1590577105,N
0,1896165,9.1645,1.8688,3.3045,1.8200,-2.2400,-1.1900,999.2513,9.0133,1.8863,3.3724,1590577105,N
0,1896084,9.1023,1.9573,3.4289,-0.3500,1.2600,-0.8400,999.2510,9.0019,1.9042,3.3927,1590577105,N
0,1893730,9.1549,2.0243,3.4265,-0.9100,1.2600,0.4200,999.2506,8.9968,1.9182,3.3983,1590577105,N
0,1894307,9.1214,1.8784,3.4313,1.3300,-0.7000,0.6300,999.2499,9.0061,1.9023,3.3825,1590577105,N
0,1895735,9.1071,1.9860,3.4193,-0.4900,0.5600,0.2100,999.2491,9.0025,1.9125,3.3865,1590577105,N
0,1897656,9.1238,1.9932,3.5007,0.1400,0.3500,-0.2100,999.2483,8.9942,1.9247,3.4014,1590577105,N
0,1900204,9.0736,2.0243,3.5821,-0.2100,-0.7000,-0.0700,999.2476,8.9838,1.9371,3.4218,1590577106,N
0,1899271,9.1238,1.8927,3.4074,0.4200,-1.2600,-0.5600,999.2466,8.9933,1.9267,3.4028,1590577106,N
0,1897040,9.0832,1.9813,3.5222,1.4700,0.6300,-1.0500,999.2458,8.9813,1.9451,3.4238,1590577106,N
0,1897552,9.1525,1.9167,3.3954,0.2800,-1.3300,-0.6300,999.2455,8.9919,1.9370,3.4005,1590577106,N
0,1898981,9.0879,1.9741,3.4050,0.6300,-4.0600,-0.1400,999.2444,9.0076,1.9351,3.3600,1590577106,N
0,1900954,9.0592,2.1775,3.5821,3.5000,0.3500,-3.2900,999.2434,8.9747,2.0103,3.4034,1590577106,N
0,1903653,9.2530,1.7898,3.1011,2.3100,-3.6400,-2.3100,999.2432,9.0154,1.9787,3.3132,1590577106,N
0,1901877,9.0999,2.2947,3.3284,-0.4200,-2.3100,1.1900,999.2427,9.0179,2.0190,3.2820,1590577106,N
0,1900138,9.1047,2.1799,3.2734,-1.7500,2.0300,-2.7300,999.2421,8.9962,2.0681,3.3107,1590577106,N
0,1901123,9.2722,1.6510,3.0054,1.0500,-3.3600,3.7800,999.2415,9.0647,1.9467,3.1957,1590577106,N
0,1902538,9.0209,2.4694,3.1442,6.8600,0.7700,7.8400,999.2408,9.0773,2.0004,3.1260,1590577107,N
0,1904794,9.3081,1.8425,3.3021,-9.5200,8.1200,4.7600,999.2404,9.0645,1.9184,3.2131,1590577107,N
0,1907212,9.1502,1.4381,3.6251,-8.8900,-1.4700,4.1300,999.2411,9.0755,1.7629,3.2707,1590577107,N
0,1904732,9.1621,1.9167,3.5438,5.5300,-4.2000,-1.9600,999.2416,9.0670,1.8057,3.2710,1590577107,N
0,1903220,9.1597,1.8832,3.1753,2.5200,-3.1500,-4.2700,999.2421,9.0687,1.8520,3.2402,1590577107,N
0,1903983,8.9970,1.9047,3.3428,2.5200,-0.9800,0.7700,999.2420,9.0666,1.8607,3.2411,1590577107,N
0,1905473,9.1693,2.0818,3.3045,2.2400,0.4200,0.5600,999.2425,9.0602,1.8993,3.2366,1590577107,N
0,1907542,9.3416,1.7061,2.6776,-2.8000,2.3800,0.2800,999.2425,9.0999,1.8581,3.1481,1590577107,N
0,1909504,9.1765,1.7946,3.3284,-0.9800,4.9700,3.8500,999.2426,9.0911,1.8186,3.1961,1590577107,N
0,1907873,9.0760,2.0052,3.8189,-1.8900,0.4200,0.4900,999.2430,9.0465,1.8414,3.3076,1590577107,N
0,1906803,9.1358,1.5218,3.2088,2.1700,-4.6900,4.3400,999.2432,9.1004,1.7372,3.2147,1590577108,N
0,1907735,9.1765,1.7515,3.4217,-0.4900,-0.4200,2.1000,999.2429,9.0991,1.7165,3.2296,1590577108,N
0,1909200,9.3320,1.7587,3.3260,0.2100,-1.7500,-4.7600,999.2430,9.0856,1.7513,3.2488,1590577108,N
0,1911245,9.2626,1.8999,3.2375,1.4000,-3.0800,-5.3200,999.2430,9.0770,1.8134,3.2389,1590577108,N
0,1913873,9.1214,2.3713,3.2710,-3.6400,3.7100,-2.6600,999.2433,9.0310,1.9357,3.2962,1590577108,N
0,1912623,9.1621,1.9956,3.3930,0.9800,4.3400,12.9500,999.2436,9.0633,1.8488,3.2572,1590577108,N
0,1911144,9.1980,1.2371,3.6754,-1.9600,1.4700,9.9400,999.2446,9.0974,1.6404,3.2736,1590577108,N
0,1911954,9.3057,1.3137,3.4026,0.2800,-0.6300,-0.2800,999.2454,9.1074,1.5703,3.2804,1590577108,N
0,1913315,9.2507,1.4883,3.3619,-0.0700,-0.5600,-2.3800,999.2454,9.1010,1.5671,3.2994,1590577108,N
0,1915096,9.2172,1.4548,3.4170,1.1900,-3.2200,-2.5900,999.2461,9.1016,1.5584,3.3020,1590577108,N
0,1917292,9.2124,1.6678,3.2686,0.4900,0.2100,-3.9200,999.2465,9.0870,1.6094,3.3177,1590577109,N
0,1919843,9.1884,1.6726,3.4816,-0.8400,-0.2800,-1.6800,999.2466,9.0708,1.6279,3.3526,1590577109,N
0,1919388,9.2100,1.6678,3.3236,1.4000,-3.5000,-0.8400,999.2473,9.0851,1.6352,3.3101,1590577109,N
0,1918010,9.1765,1.7396,3.2566,0.7000,1.1900,-1.6800,999.2474,9.0777,1.6701,3.3130,1590577109,N
0,1918315,9.2243,1.7372,3.4576,-2.2400,1.5400,-0.4200,999.2473,9.0618,1.6780,3.3524,1590577109,N
0,1919609,9.1430,1.6702,3.4241,0.2800,-0.9800,0.0700,999.2469,9.0638,1.6715,3.3503,1590577109,N
0,1921368,9.1693,1.7252,3.3165,1.9600,-0.2100,-1.0500,999.2469,9.0655,1.6911,3.3357,1590577109,N
0,1923532,9.1765,1.7827,3.3667,0.5600,-0.2800,-0.5600,999.2466,9.0631,1.7098,3.3327,1590577109,N
0,1926095,9.2004,1.7468,3.3906,0.5600,0.4200,-0.2800,999.2463,9.0602,1.7160,3.3373,1590577109,N
0,1928632,9.1837,1.7587,3.3619,0.2100,-0.4200,-1.1200,999.2465,9.0580,1.7286,3.3370,1590577109,N
0,1930601,9.1980,1.7061,3.3212,0.7000,-1.0500,-1.4700,999.2469,9.0619,1.7312,3.3249,1590577110,N
0,1929425,9.1358,1.8209,3.3356,0.7700,-0.8400,-1.8200,999.2471,9.0567,1.7604,3.3238,1590577110,N
0,1929149,9.1358,1.8592,3.3595,0.6300,-1.0500,-1.2600,999.2480,9.0526,1.7856,3.3214,1590577110,N
0,1930177,9.1669,1.8449,3.3308,0.6300,-0.5600,-0.9100,999.2479,9.0523,1.8005,3.3143,1590577110,N
0,1931446,9.1741,1.8401,3.3547,0.3500,-0.8400,-0.7000,999.2472,9.0524,1.8082,3.3098,1590577110,N
0,1933260,9.2100,1.8784,3.3308,1.4000,-0.9100,-1.2600,999.2462,9.0527,1.8272,3.2986,1590577110,N
0,1935507,9.1645,1.9047,3.2973,0.0700,0.1400,0.0700,999.2458,9.0533,1.8380,3.2908,1590577110,N
0,1937675,9.1741,1.9047,3.3141,-0.2100,0.2100,0.0700,999.2457,9.0526,1.8457,3.2886,1590577110,N
0,1940206,9.2100,1.9956,3.2638,-0.3500,0.5600,0.5600,999.2451,9.0536,1.8649,3.2748,1590577110,N
0,1942170,9.2004,1.8544,3.3332,-1.7500,1.8900,1.8200,999.2441,9.0541,1.8425,3.2862,1590577110,N
0,1941354,9.2195,1.7204,3.3858,-0.0700,0.8400,0.5600,999.2430,9.0562,1.8094,3.2986,1590577111,N
0,1941532,9.1525,1.8473,3.4241,-0.2100,0.8400,-0.2100,999.2426,9.0462,1.8147,3.3232,1590577111,N
0,1942695,9.1645,1.8042,3.3500,0.7700,-0.7700,-0.6300,999.2422,9.0491,1.8135,3.3159,1590577111,N
0,1944123,9.1813,1.7850,3.3715,0.2800,-0.2100,-0.0700,999.2417,9.0512,1.8037,3.3156,1590577111,N
0,1945840,9.1047,1.8520,3.3715,0.1400,0.3500,-0.2800,999.2418,9.0454,1.8137,3.3258,1590577111,N
0,1948032,9.1908,1.8353,3.3667,0.3500,-0.1400,0.2100,999.2420,9.0481,1.8112,3.3200,1590577111,N
0,1950249,9.1765,1.8520,3.3595,0.4900,-0.4900,-0.1400,999.2413,9.0495,1.8154,3.3137,1590577111,N
0,1952437,9.1645,1.8927,3.3547,-0.0700,0.2100,-0.1400,999.2409,9.0464,1.8271,3.3157,1590577111,N
0,1953790,9.1645,1.8712,3.3787,0.4900,-0.0700,0.2100,999.2405,9.0460,1.8300,3.3153,1590577111,N
0,1953459,9.1908,1.7492,3.3715,0.4900,0.1400,0.4900,999.2399,9.0514,1.8063,3.3136,1590577111,N
0,1954302,9.1645,1.8544,3.4122,0.3500,-0.2100,0.0700,999.2394,9.0483,1.8103,3.3199,1590577112,N
0,1955595,9.1454,1.8401,3.4002,0.1400,-0.0700,0.0700,999.2385,9.0458,1.8113,3.3260,1590577112,N
0,1957084,9.2004,1.8209,3.3332,0.4200,-0.2100,-0.1400,999.2377,9.0501,1.8095,3.3154,1590577112,N
0,1958817,9.1765,1.8951,3.3117,0.2800,-0.2100,-0.1400,999.2370,9.0515,1.8230,3.3041,1590577112,N
0,1960714,9.1717,1.8257,3.3811,-0.0700,0.0700,0.2100,999.2363,9.0508,1.8168,3.3096,1590577112,N
0,1962632,9.1262,1.8042,3.3188,0.7700,-0.5600,-0.2100,999.2355,9.0545,1.8139,3.3009,1590577112,N
0,1964787,9.2004,1.7779,3.4026,1.6800,-2.1000,-1.8200,999.2341,9.0550,1.8150,3.2989,1590577112,N
0,1964963,9.1860,1.9454,3.3811,2.2400,-2.6600,-1.3300,999.2335,9.0550,1.8445,3.2827,1590577112,N
0,1965318,9.1980,2.0171,3.3141,1.2600,-1.6100,-1.6100,999.2327,9.0515,1.8841,3.2698,1590577112,N
0,1966429,9.2052,1.9789,3.2351,0.4200,-0.4900,-0.4200,999.2321,9.0552,1.9004,3.2500,1590577112,N
0,1967538,9.1597,1.9238,3.3308,0.2800,-0.0700,0.5600,999.2315,9.0551,1.8961,3.2527,1590577113,N
0,1968927,9.1860,1.9382,3.2590,0.2100,0.4200,-0.1400,999.2315,9.0553,1.9018,3.2489,1590577113,N
0,1970496,9.1789,1.8808,3.1992,0.1400,0.1400,0.2800,999.2315,9.0633,1.8925,3.2319,1590577113,N
0,1972158,9.2004,1.9573,3.2566,0.5600,-0.3500,-0.0700,999.2317,9.0648,1.9007,3.2229,1590577113,N
0,1973753,9.1932,1.9765,3.2806,0.2100,0.0700,-0.2100,999.2319,9.0615,1.9120,3.2256,1590577113,N
0,1973450,9.2124,1.9358,3.2758,0.4900,0.2100,0.7000,999.2317,9.0643,1.9065,3.2210,1590577113,N
0,1973995,9.1980,1.9525,3.3141,0.6300,0.2100,0.1400,999.2322,9.0612,1.9100,3.2277,1590577113,N
0,1975035,9.2028,1.8927,3.3452,0.6300,-0.0700,0.1400,999.2339,9.0600,1.9003,3.2365,1590577113,N
0,1975999,9.2028,1.9262,3.3188,0.6300,-0.6300,0.2100,999.2350,9.0617,1.8976,3.2335,1590577113,N
0,1977137,9.1956,1.8832,3.2399,0.7000,-0.4200,0.4200,999.2362,9.0692,1.8873,3.2184,1590577113,N
0,1978663,9.2028,2.0171,3.2734,-1.5400,-0.5600,2.6600,999.2374,9.0762,1.8806,3.2026,1590577114,N
0,1979741,9.1956,1.7228,3.2782,-0.9800,-1.0500,-0.7000,999.2389,9.0807,1.8465,3.2096,1590577114,N
0,1978959,9.2483,1.9071,3.1872,-0.8400,-2.3800,0.0700,999.2390,9.0923,1.8453,3.1773,1590577114,N
0,1979065,9.2387,1.8999,3.1513,-1.8200,-0.2100,-0.3500,999.2392,9.0942,1.8495,3.1694,1590577114,N
0,1979501,9.1789,1.9286,3.3356,-2.8700,4.1300,1.6100,999.2387,9.0742,1.8491,3.2263,1590577114,N
0,1979932,9.1956,1.6702,3.4409,-0.2800,1.4000,0.6300,999.2377,9.0686,1.8055,3.2668,1590577114,N
0,1980947,9.1525,1.8616,3.3763,0.8400,-0.2100,-0.5600,999.2373,9.0615,1.8179,3.2793,1590577114,N
0,1982094,9.1286,1.8138,3.4241,-0.0700,-0.2100,0.4200,999.2369,9.0571,1.8093,3.2963,1590577114,N
0,1981948,9.1932,1.8329,3.4074,0.4200,-0.1400,0.0700,999.2362,9.0546,1.8079,3.3040,1590577114,N
0,1981537,9.1621,1.8329,3.2997,0.6300,-0.1400,-0.3500,999.2359,9.0567,1.8130,3.2953,1590577114,N
0,1982086,9.2004,1.8473,3.6275,0.9100,-0.7700,0.8400,999.2360,9.0464,1.8049,3.3279,1590577115,N
0,1982690,9.2124,1.6941,3.1705,2.5200,-2.9400,-1.6800,999.2350,9.0699,1.7931,3.2698,1590577115,N
0,1983481,9.2435,1.8090,3.2303,1.1200,-1.6100,-0.6300,999.2346,9.0806,1.7951,3.2390,1590577115,N
0,1984279,9.2315,1.8712,3.1011,0.2800,-1.4700,-0.5600,999.2337,9.0937,1.8086,3.1944,1590577115,N
0,1984439,9.2387,1.8664,3.2183,1.1200,-1.1900,0.1400,999.2345,9.0996,1.8132,3.1748,1590577115,N
0,1983754,9.1908,1.9406,3.1083,0.7700,-1.1900,0.1400,999.2346,9.1068,1.8333,3.1425,1590577115,N
0,1983741,9.2722,1.8592,3.2016,-0.2100,0.1400,0.7000,999.2342,9.1090,1.8261,3.1404,1590577115,N
0,1984114,9.2076,1.8209,3.2686,-0.2100,0.4900,-0.5600,999.2341,9.1004,1.8254,3.1656,1590577115,N
0,1984621,9.2004,1.8975,3.2375,-0.2100,0.4900,-0.2100,999.2346,9.0938,1.8371,3.1776,1590577115,N
0,1985798,9.2507,1.9143,3.1585,1.3300,-1.8200,-0.4200,999.2343,9.1020,1.8490,3.1472,1590577115,N
0,1986466,9.2483,1.8066,3.1968,0.1400,-2.1000,2.3100,999.2334,9.1203,1.8125,3.1154,1590577116,N
0,1985559,9.3200,1.8377,2.9527,2.5200,-1.6800,1.5400,999.2336,9.1469,1.8018,3.0427,1590577116,N
0,1985381,9.2626,1.7468,2.9910,1.3300,0.9100,0.9800,999.2344,9.1561,1.7846,3.0251,1590577116,N
0,1986353,9.2267,1.9238,3.1178,-1.6100,3.0100,-2.0300,999.2344,9.1297,1.8274,3.0790,1590577116,N
0,1986550,9.1908,1.8281,3.3093,-1.7500,2.8700,-1.2600,999.2347,9.1027,1.8357,3.1531,1590577116,N
0,1986709,9.2339,1.7324,3.1466,0.2800,0.0700,-0.9800,999.2358,9.1064,1.8200,3.1515,1590577116,N
0,1987621,9.2746,1.8114,3.1920,-0.2800,1.5400,-0.0700,999.2365,9.1033,1.8153,3.1631,1590577116,N
0,1987358,9.1549,1.8520,3.3523,-0.7700,0.4900,0.1400,999.2373,9.0906,1.8167,3.1986,1590577116,N
0,1986864,9.1837,1.8999,3.1896,1.2600,-0.2100,0.2100,999.2372,9.0933,1.8301,3.1833,1590577116,N
0,1986942,9.1980,1.8209,3.2351,0.3500,-0.2100,0.1400,999.2376,9.0949,1.8233,3.1826,1590577116,N
0,1987473,9.2004,1.8760,3.2782,-0.0700,0.1400,0.2100,999.2372,9.0906,1.8271,3.1926,1590577117,N
0,1988154,9.1597,1.8832,3.2662,1.1200,-0.2100,-0.4200,999.2365,9.0861,1.8399,3.1982,1590577117,N
0,1988896,9.2339,1.7539,3.1872,0.4900,0.0700,0.1400,999.2356,9.0944,1.8185,3.1868,1590577117,N
0,1989922,9.2172,1.9214,3.3069,-1.0500,2.1000,0.0700,999.2347,9.0796,1.8339,3.2199,1590577117,N
0,1990953,9.1789,1.7922,3.3428,0.1400,2.1000,0.2800,999.2344,9.0706,1.8234,3.2511,1590577117,N
0,1991491,9.2172,1.8042,3.3404,0.1400,-0.1400,-0.2800,999.2337,9.0695,1.8159,3.2582,1590577117,N
0,1990950,9.2267,1.8066,3.2231,-0.8400,1.7500,0.0700,999.2337,9.0702,1.8104,3.2595,1590577117,N
92,1991053,9.1549,1.7659,3.4983,0.2800,0.7000,0.4200,999.2339,9.0593,1.7951,3.2981,1590577117,N
92,1991602,9.2052,1.9358,3.3188,2.3800,-0.6300,-1.4000,999.2342,9.0559,1.8318,3.2872,1590577117,N
92,1992083,9.1741,1.8640,3.3978,0.0700,-0.2100,-0.3500,999.2343,9.0509,1.8351,3.2992,1590577117,N
92,1993250,9.1478,1.8449,3.3619,0.9800,-1.1900,-0.2100,999.2334,9.0535,1.8343,3.2923,1590577118,N
92,1994240,9.1789,1.8688,3.3165,1.4700,-0.8400,-0.2800,999.2327,9.0574,1.8401,3.2784,1590577118,N
92,1995340,9.1956,1.9262,3.3404,0.7000,-0.4200,-0.2100,999.2320,9.0558,1.8533,3.2753,1590577118,N
92,1996517,9.2315,1.8808,3.3093,0.4200,-0.3500,0.1400,999.2316,9.0600,1.8511,3.2651,1590577118,N
92,1996842,9.1621,1.9167,3.3332,0.4200,-0.0700,-0.1400,999.2311,9.0565,1.8611,3.2690,1590577118,N
92,1996878,9.1932,1.8640,3.3356,0.1400,-0.1400,0.2800,999.2303,9.0580,1.8539,3.2689,1590577118,N
92,1997528,9.1621,1.8305,3.2590,0.2100,0.2100,0.3500,999.2298,9.0633,1.8440,3.2600,1590577118,N
92,1998286,9.1573,1.8377,3.2566,-0.1400,-0.1400,0.2100,999.2291,9.0676,1.8373,3.2517,1590577118,N
92,1999165,9.1980,1.8401,3.3356,0.1400,-0.2100,-0.2800,999.2285,9.0659,1.8345,3.2581,1590577118,N
92,2000040,9.1837,1.8497,3.3188,0.4900,-0.3500,-0.0700,999.2279,9.0663,1.8335,3.2573,1590577118,N
92,2000820,9.2172,1.9095,3.3236,0.7000,-0.4900,-0.0700,999.2279,9.0660,1.8431,3.2530,1590577119,N
91,2001924,9.2100,1.9143,3.2638,3.0800,-3.5000,-1.9600,999.2283,9.0734,1.8667,3.2185,1590577119,N
92,2002855,9.1645,2.0818,3.1178,0.9100,-0.5600,-0.2100,999.2277,9.0763,1.9081,3.1859,1590577119,N
92,2002336,9.1765,1.8449,3.2303,-0.2800,0.9100,0.3500,999.2267,9.0768,1.8904,3.1950,1590577119,N
92,2002691,9.1765,1.9382,3.2734,-0.0700,0.4200,0.3500,999.2261,9.0732,1.8929,3.2039,1590577119,N
91,2003511,9.1645,1.9262,3.2758,0.5600,-0.2800,0.1400,999.2254,9.0722,1.8947,3.2057,1590577119,N
91,2004102,9.1454,1.9597,3.2830,0.3500,0.1400,0.1400,999.2246,9.0676,1.9034,3.2134,1590577119,N
91,2004927,9.1860,1.8640,3.2207,-0.4200,0.3500,-0.0700,999.2244,9.0702,1.8920,3.2128,1590577119,N
91,2005813,9.1765,1.9047,3.3188,0.4200,-0.0700,0.1400,999.2246,9.0675,1.8890,3.2222,1590577119,N
91,2006683,9.1884,1.9071,3.2758,0.2100,-0.0700,0.3500,999.2247,9.0689,1.8850,3.2207,1590577120,N
91,2006383,9.1621,1.9334,3.2542,-0.0700,0.1400,0.1400,999.2250,9.0678,1.8896,3.2210,1590577120,N
91,2006242,9.1502,1.8784,3.2925,0.4200,0.2800,0.0700,999.2249,9.0659,1.8845,3.2293,1590577120,N
91,2006645,9.2052,1.8473,3.2638,0.1400,0.0700,0.2100,999.2248,9.0698,1.8709,3.2263,1590577120,N
91,2007066,9.1932,1.8712,3.2542,0.7700,-0.7700,-0.1400,999.2245,9.0742,1.8675,3.2158,1590577120,N
91,2007439,9.1956,1.8808,3.2853,0.2100,-0.1400,-0.0700,999.2245,9.0734,1.8656,3.2192,1590577120,N
91,2008081,9.1884,1.8999,3.2423,0.2800,-0.4200,-0.0700,999.2245,9.0754,1.8682,3.2120,1590577120,N
91,2008610,9.1884,1.9047,3.2471,0.5600,-0.3500,-0.0700,999.2244,9.0766,1.8718,3.2067,1590577120,N
91,2008290,9.1621,1.9334,3.2423,0.4200,-0.0700,-0.2800,999.2228,9.0741,1.8831,3.2069,1590577120,N
91,2007309,9.1813,1.9119,3.3236,0.1400,0.2100,0.1400,999.2209,9.0691,1.8830,3.2211,1590577120,N
91,2007010,9.1956,1.9286,3.2782,0.3500,0.2100,0.0700,999.2193,9.0675,1.8872,3.2232,1590577120,N
91,2006884,9.1382,1.9238,3.2997,0.7000,-0.7000,-0.2800,999.2178,9.0654,1.8930,3.2257,1590577121,N
91,2006838,9.2459,1.8903,3.2183,0.1400,-0.4200,-0.2100,999.2170,9.0718,1.8874,3.2110,1590577121,N
91,2007144,9.2339,1.9693,3.2853,0.2800,-0.4200,-0.2800,999.2167,9.0696,1.8982,3.2107,1590577121,N
92,2007583,9.2052,1.8808,3.2782,0.2800,-0.5600,-0.3500,999.2164,9.0708,1.8915,3.2113,1590577121,N
91,2006912,9.2339,1.8927,3.2782,0.9800,-1.9600,-1.8200,999.2161,9.0717,1.8978,3.2051,1590577121,N
91,2005507,8.9492,1.8616,4.1324,22.1900,-0.0700,-4.9000,999.2162,9.0122,1.9771,3.3230,1590577121,N
91,2009533,9.5210,1.8951,2.8953,126.7000,-51.3800,-1.0500,999.2161,9.2571,2.0915,2.4703,1590577121,N
91,2010805,9.4397,3.6419,-0.3613,-17.4300,-54.0400,45.3600,999.2161,9.5679,1.6758,1.3484,1590577121,N
91,2007935,9.6670,2.2205,-0.5264,-61.3200,-44.2400,75.6700,999.2153,9.7723,0.7046,0.4199,1590577121,N
90,2006028,10.0810,-0.6150,-2.0435,-105.9800,2.0300,74.9000,999.2134,9.7607,-0.8700,-0.3761,1590577121,N
91,2004604,10.4447,-1.9071,-1.0839,-99.0500,39.6900,49.4200,999.2121,9.7573,-0.8778,-0.4413,1590577122,N
91,2003476,9.4397,-2.5316,0.6030,-98.1400,78.6800,18.1300,999.2119,9.6586,-1.0885,-1.3026,1590577122,N
90,2002711,9.7220,-3.6802,2.4191,-76.0900,32.0600,4.6900,999.2130,8.4693,-1.2548,4.7819,1590577122,N
90,2002351,9.6072,-3.0461,1.6774,-28.0700,6.3000,-3.7800,999.2149,9.0729,-1.6790,3.3217,1590577122,N
91,2003981,9.4086,-2.5436,2.7039,-8.7500,8.1200,-2.3800,999.2173,9.1292,-1.8246,3.0821,1590577122,N
90,2005122,9.4397,-3.5031,1.6869,-17.9900,-0.6300,-1.1900,999.2195,9.2072,-2.1115,2.6345,1590577122,N
91,2006415,9.5976,-2.4598,2.1129,2.3100,-7.8400,-5.4600,999.2216,9.2753,-2.0877,2.4041,1590577122,N
91,2008185,9.7149,-2.9815,1.9908,6.7900,1.1900,9.3100,999.2243,9.2406,-2.2859,2.3572,1590577122,N
91,2007081,9.4014,-2.6321,1.7085,-3.0800,-9.1700,6.7900,999.2255,9.2703,-2.3704,2.1479,1590577122,N
92,2007305,9.3751,-3.1968,1.3017,4.6900,-15.9600,-13.6500,999.2273,9.3627,-2.3042,1.7893,1590577122,N
91,2008217,9.0832,-3.3404,2.7039,10.2200,-16.3100,10.6400,999.2286,9.2935,-2.4950,1.8912,1590577123,N
91,2009205,8.8534,-2.4311,1.6606,69.3000,-61.6700,-58.5200,999.2297,9.5890,-1.6390,1.2392,1590577123,N
92,2009769,9.5402,-0.6820,-2.2038,150.0800,-64.0500,-96.8800,999.2307,9.6603,-1.5870,0.5740,1590577123,N
92,2010807,9.6335,3.0126,-2.1440,92.1900,-18.5500,-57.8200,999.2313,9.4855,1.3613,-2.0838,1590577123,N
92,2013729,10.1049,2.3450,-1.9334,-4.9000,3.9900,-22.1900,999.2320,8.4364,2.4500,-4.3584,1590577123,N
92,2013795,9.3344,1.2395,1.1438,1.2600,17.7100,17.1500,999.2335,5.7320,1.9243,-7.7208,1590577123,N
92,2012351,9.9733,0.9739,-0.4235,4.4800,-2.1000,28.7700,999.2342,8.5859,1.5807,4.4671,1590577123,N
92,2009625,9.9972,-0.1053,-0.6054,-9.1000,0.4200,27.8600,999.2355,9.6286,0.5408,1.7799,1590577123,N
92,2008215,10.3322,-1.1079,-0.5862,-4.7600,-14.9800,13.1600,999.2374,9.6411,-0.4850,1.7273,1590577123,N
91,2007859,9.8441,-0.1819,-0.9906,-3.0100,-4.4800,9.3800,999.2382,9.6612,-0.8345,1.4613,1590577123,N
91,2007793,10.0235,-0.4307,-0.8183,-10.5700,1.1200,9.7300,999.2390,9.6628,-1.3308,1.0151,1590577124,N
91,2007394,9.8632,-0.3589,-0.6724,-7.2100,3.6400,7.0000,999.2390,9.6381,-1.6824,0.6681,1590577124,N
92,2005496,9.9039,-0.5503,-0.4427,-3.0100,2.1000,3.4300,999.2390,9.5848,-2.0288,0.4323,1590577124,N
92,2004414,9.9446,-0.4475,-0.6317,0.4200,-1.9600,0.4900,999.2387,9.4458,-2.6265,0.2193,1590577124,N
92,2004025,9.8704,-0.4020,-0.7298,0.1400,0.4900,0.2100,999.2395,8.8649,-4.1933,0.0246,1590577124,N
92,2003687,9.8201,-0.4403,-0.4164,-1.0500,-2.8000,0.9100,999.2401,8.7848,-4.3461,-0.3305,1590577124,N
92,2003713,9.9733,-0.1795,-0.8518,0.8400,-2.8700,-1.7500,999.2404,9.7108,-1.2640,-0.5223,1590577124,N
92,2003615,9.9159,-0.2824,-0.7298,-4.1300,4.8300,2.4500,999.2413,9.7620,-0.7832,-0.5111,1590577124,N
92,2003730,9.8584,-0.3374,-0.4403,-4.6900,3.1500,2.5200,999.2425,9.7747,-0.6326,-0.4741,1590577124,N
92,2002097,9.8560,-0.5408,-0.4307,2.4500,-1.6100,-2.5200,999.2437,9.7771,-0.5978,-0.4702,1590577125,N
92,2001020,9.8178,-0.2943,-0.7322,2.8700,-2.8700,-4.5500,999.2444,9.7802,-0.4983,-0.5193,1590577125,N
92,2000635,9.8584,-0.2058,-0.7705,-2.4500,3.0100,-2.3100,999.2448,9.7853,-0.3926,-0.5146,1590577125,N
92,2000189,9.8871,-0.2680,-0.5862,-4.1300,5.7400,-1.1900,999.2449,9.7902,-0.3269,-0.4639,1590577125,N
92,2000284,9.9182,-0.2991,-0.1914,-1.8900,3.5700,-1.4700,999.2463,9.7952,-0.2989,-0.3684,1590577125,N
92,2000560,9.8465,-0.2393,-0.1819,7.6300,-6.3700,-3.2200,999.2476,9.7952,-0.2933,-0.3722,1590577125,N
92,2000862,9.8441,-0.0814,-0.6652,12.2500,-8.1200,-3.2900,999.2485,9.7924,-0.2563,-0.4617,1590577125,N
92,1999583,9.9900,-0.1986,-1.1892,4.9700,1.7500,-0.4200,999.2484,9.7889,-0.2497,-0.5343,1590577125,N
92,1998948,10.0092,-0.4786,-0.2512,9.1000,2.5900,-1.8900,999.2476,9.7922,-0.2810,-0.4518,1590577125,N
92,1998779,9.9135,-0.1292,-0.4642,4.4800,-1.1900,-1.0500,999.2460,9.7935,-0.2389,-0.4487,1590577125,N
92,1999360,9.8345,-0.1866,-0.5456,-2.1700,-5.1100,4.4100,999.2448,9.7879,-0.2801,-0.5377,1590577125,N
92,2000084,9.8848,0.3326,-0.7944,4.7600,-8.2600,-3.3600,999.2444,9.7890,-0.1504,-0.5694,1590577126,N
92,2000831,9.9063,-0.1125,-1.1151,-1.7500,-1.6100,0.2800,999.2448,9.7839,-0.1511,-0.6503,1590577126,N
92,2000230,9.7914,0.2417,-0.9117,-4.2700,6.8600,1.6800,999.2448,9.7894,-0.0803,-0.5767,1590577126,N
92,1999635,9.9541,-0.2417,-0.6221,-0.4200,3.5700,5.3200,999.2443,9.7827,-0.1573,-0.6663,1590577126,N
92,1999437,9.9302,-0.4235,-0.7202,2.3100,3.4300,-0.2800,999.2430,9.7832,-0.2009,-0.6472,1590577126,N
92,1999289,9.8608,-0.1723,-0.4953,-3.5700,5.8800,2.1700,999.2430,9.7863,-0.2055,-0.5966,1590577126,N
92,1999805,9.9422,-0.0981,-0.4690,-6.3700,4.2000,4.2700,999.2435,9.7851,-0.2149,-0.6125,1590577126,N
92,2000956,9.9087,-0.3230,-0.3685,1.6100,4.4100,5.1800,999.2438,9.7872,-0.2757,-0.5525,1590577126,N
92,2000815,9.9374,-0.4116,-0.2297,8.2600,1.1900,0.0700,999.2445,9.7924,-0.2991,-0.4352,1590577126,N
92,1999963,9.9039,-0.2201,-0.3541,8.9600,0.8400,0.9100,999.2447,9.7937,-0.2907,-0.4107,1590577126,N
92,2000152,9.9733,-0.8877,-0.2608,9.1700,6.7900,-1.3300,999.2444,9.7953,-0.3456,-0.3200,1590577127,N
91,2000840,9.8154,-0.2489,-0.0622,3.3600,8.2600,0.7000,999.2438,9.8006,-0.2946,-0.1761,1590577127,N
92,2001454,9.8632,-0.3805,0.1484,2.8000,2.8000,0.9100,999.2432,9.7684,-0.8281,-0.2493,1590577127,N
92,2002387,9.9374,-0.5623,0.0311,-0.0700,-1.6800,0.2800,999.2427,9.8017,-0.3029,-0.0753,1590577127,N
92,2002443,9.9278,-0.4187,-0.0383,4.6200,-3.5000,-2.3800,999.2422,9.8008,-0.3267,-0.0932,1590577127,N
91,2001022,9.6479,-0.9045,-0.0574,0.1400,-14.1400,-5.5300,999.2413,9.7880,-0.5643,-0.2151,1590577127,N
91,2000124,10.1049,0.0096,-0.5551,7.5600,-16.1000,-6.2300,999.2405,9.7861,-0.4897,-0.4028,1590577127,N
91,2000291,10.0953,-0.0574,-0.7346,8.1900,-7.2800,-7.1400,999.2404,9.7885,-0.3561,-0.4774,1590577127,N
91,2001020,9.9541,0.0359,-0.8327,-1.4000,1.4700,1.4700,999.2407,9.7905,-0.2695,-0.4935,1590577127,N
91,2002065,9.9422,-0.2369,-0.6508,-0.7000,4.3400,2.7300,999.2410,9.7911,-0.2667,-0.4834,1590577127,N
91,2002493,9.8417,-0.4834,-0.5097,-0.9800,3.2900,2.1700,999.2414,9.7900,-0.3176,-0.4750,1590577128,N
91,2001669,9.8967,-0.3159,-0.4618,0.8400,0.9100,-0.3500,999.2421,9.7910,-0.3099,-0.4600,1590577128,N
92,2001601,9.9159,-0.2082,-0.5384,0.9100,-1.4000,-1.7500,999.2427,9.7914,-0.2763,-0.4716,1590577128,N
91,2001886,9.9206,-0.1795,-0.5743,-0.7000,-0.0700,-0.4200,999.2429,9.7915,-0.2516,-0.4828,1590577128,N
92,2002150,9.9541,-0.2321,-0.6221,2.8000,-0.4200,-0.8400,999.2438,9.7909,-0.2414,-0.4996,1590577128,N
92,2002650,9.8632,-0.2393,-0.4546,-0.8400,1.4000,0.9800,999.2444,9.7915,-0.2457,-0.4855,1590577128,N
92,2003161,9.8297,-0.2919,-0.5312,0.0700,-0.2800,-0.3500,999.2442,9.7910,-0.2522,-0.4938,1590577128,N
92,2001884,9.9063,-0.2154,-0.5001,0.2800,0.4200,-0.2100,999.2431,9.7916,-0.2412,-0.4876,1590577128,N
92,2001366,9.9422,-0.2441,-0.4211,-0.0700,0.2100,-0.0700,999.2414,9.7924,-0.2401,-0.4705,1590577128,N
92,2001366,9.8393,-0.2201,-0.4738,0.4200,-0.6300,-0.2800,999.2411,9.7924,-0.2348,-0.4736,1590577128,N
92,2001655,9.7986,-0.2967,-0.4427,-3.0800,-4.0600,-0.1400,999.2407,9.7903,-0.2552,-0.5053,1590577129,N
92,2001866,9.8704,-0.3852,-0.6269,1.5400,-4.6900,-1.0500,999.2410,9.7864,-0.2831,-0.5633,1590577129,N
92,2002493,9.8919,-0.0215,-0.7633,0.9100,-3.5000,-0.7000,999.2413,9.7848,-0.2329,-0.6106,1590577129,N
92,2001498,9.8441,-0.1555,-0.7968,-1.1200,0.4900,0.2100,999.2410,9.7836,-0.2184,-0.6349,1590577129,N
92,2000609,9.8632,-0.1747,-0.6891,-1.8200,2.1700,1.1900,999.2406,9.7835,-0.2156,-0.6378,1590577129,N
92,2000552,9.9278,-0.1675,-0.6341,0.1400,-0.7700,-0.6300,999.2411,9.7841,-0.2007,-0.6331,1590577129,N
92,2000793,9.9446,-0.1842,-0.6461,0.7700,-1.6100,-0.8400,999.2416,9.7842,-0.1917,-0.6353,1590577129,N
93,2001045,9.9159,-0.1962,-0.7274,0.2800,-0.1400,-0.5600,999.2419,9.7838,-0.1873,-0.6430,1590577129,N
92,2001546,9.9135,-0.1890,-0.6604,-0.4900,1.0500,0.2100,999.2423,9.7841,-0.1873,-0.6381,1590577129,N
92,2001571,9.8752,-0.2154,-0.6580,0.6300,-0.0700,0.2100,999.2425,9.7835,-0.1948,-0.6442,1590577130,N
92,2000586,9.8943,-0.0933,-0.7155,0.4200,-0.7700,-0.3500,999.2433,9.7833,-0.1723,-0.6544,1590577130,N
93,2000181,9.8441,-0.0957,-0.7466,-0.9100,0.0700,0.4900,999.2441,9.7819,-0.1612,-0.6770,1590577130,N
93,2000338,9.8776,-0.3589,-0.6772,1.5400,-0.2100,0.0700,999.2452,9.7809,-0.2009,-0.6817,1590577130,N
93,2000830,9.8297,-0.0191,-0.7370,6.7900,-1.8200,-2.8700,999.2459,9.7843,-0.1430,-0.6456,1590577130,N
93,2001730,9.9063,-0.1005,-0.7537,-0.7000,-1.1900,0.2100,999.2467,9.7825,-0.1371,-0.6740,1590577130,N
93,2005049,9.9039,-0.1507,-0.7944,-3.3600,-0.7700,1.1900,999.2468,9.7783,-0.1499,-0.7301,1590577130,N
93,2007988,9.8345,-0.0526,-0.6006,2.8700,-1.2600,-1.2600,999.2467,9.7821,-0.1198,-0.6836,1590577130,N
93,2008955,9.8776,-0.1292,-0.7657,3.0800,-6.6500,-4.8300,999.2466,9.7854,-0.0844,-0.6395,1590577130,N
93,2009180,9.9111,-0.0646,-1.0074,2.5900,-5.0400,-3.4300,999.2460,9.7861,-0.0550,-0.6316,1590577130,N
93,2009433,9.8536,0.1340,-1.1127,4.1300,-1.6100,-2.0300,999.2456,9.7931,-0.0040,-0.5151,1590577130,N
93,2011567,9.8393,-0.1172,-0.9141,7.1400,-4.6900,-3.4300,999.2459,9.7925,-0.0014,-0.5270,1590577131,N
93,2013006,9.9278,0.0455,-1.0433,1.6100,-11.7600,-7.4200,999.2455,9.8032,0.0694,-0.2505,1590577131,N
93,2013712,9.8513,0.3685,-1.5147,2.3800,-8.8900,-5.9500,999.2455,9.7170,0.1638,1.3127,1590577131,N
93,2011221,9.7268,0.4379,-1.6798,0.7000,-3.7800,-5.1800,999.2448,8.8579,0.2224,-4.2023,1590577131,N
93,2010414,9.7843,0.3398,-1.5745,-1.8900,1.1900,1.9600,999.2451,9.4409,0.2526,-2.6413,1590577131,N
93,2010509,9.8249,-0.0383,-1.2897,2.8700,0.9100,-1.8200,999.2449,9.3350,0.2028,-2.9978,1590577131,N
93,2010613,9.8201,0.4427,-1.4022,10.9200,-2.5200,-7.9800,999.2454,9.4430,0.3128,-2.6274,1590577131,N
93,2011820,9.7149,0.4211,-1.5386,0.5600,-3.7800,-3.9200,999.2458,9.5201,0.3710,-2.3240,1590577131,N
93,2013007,9.7603,0.2656,-1.5649,-1.4700,-4.9700,-3.7800,999.2465,9.5321,0.3866,-2.2715,1590577131,N
93,2012124,9.7412,0.4259,-1.8185,1.8900,-3.0800,-5.7400,999.2467,9.5190,0.4420,-2.3161,1590577131,N
93,2011216,9.6694,0.5049,-1.8903,11.9700,-1.6100,-13.9300,999.2473,9.4310,0.5583,-2.6297,1590577132,N
93,2011586,9.5641,1.6032,-1.8520,2.3800,2.6600,-7.8400,999.2480,9.4829,0.8096,-2.3644,1590577132,N
93,2011062,9.6766,1.2443,-1.5003,-18.7600,3.9900,4.6900,999.2476,9.5776,0.8662,-1.9209,1590577132,N
93,2013209,9.7579,0.8040,-1.5888,-24.4300,2.1700,7.2800,999.2476,9.6270,0.8072,-1.6852,1590577132,N
93,2014456,9.8249,0.7490,-1.4524,-7.4200,4.5500,0.4200,999.2476,9.6479,0.7874,-1.5714,1590577132,N
93,2013567,9.7220,0.9547,-1.4166,-4.4100,4.1300,2.5200,999.2477,9.6637,0.7915,-1.4687,1590577132,N
93,2012501,9.9302,1.4572,-1.4979,10.9200,5.0400,-2.3100,999.2474,9.6545,0.9055,-1.4630,1590577132,N
93,2011338,9.8848,0.7825,-1.3519,8.9600,9.4500,-2.4500,999.2477,9.6694,0.8688,-1.3851,1590577132,N
93,2010828,9.8034,1.2730,-0.7968,2.2400,9.9400,1.6800,999.2478,9.6978,0.8975,-1.1478,1590577132,N
93,2011471,9.7484,0.6197,-0.5815,0.8400,2.5200,4.3400,999.2473,9.7255,0.8000,-0.9716,1590577132,N
93,2011937,9.7125,1.2251,-1.2993,4.2000,4.9700,5.1800,999.2478,9.7248,0.8120,-0.9695,1590577133,N
93,2010775,10.0522,0.2871,-0.7394,5.6700,14.2800,7.7700,999.2487,9.7596,0.5816,-0.7626,1590577133,N
93,2007028,10.2102,-0.6413,0.2919,6.5800,16.8700,-10.6400,999.2497,9.7821,0.3966,-0.5693,1590577133,N
93,2006057,9.7866,1.0935,-0.0024,17.8500,-7.0000,-30.1000,999.2495,9.7501,0.7720,-0.7143,1590577133,N
93,2008614,9.8273,3.0030,-0.7226,-0.7700,-15.5400,-15.1900,999.2502,9.6752,1.2619,-0.9842,1590577133,N
93,2011967,9.9350,2.1799,-2.0148,20.7900,20.0900,-17.1500,999.2503,9.6317,1.4705,-1.1125,1590577133,N
93,2013800,10.0211,1.4955,0.1699,-29.4000,7.6300,0.7700,999.2503,9.6858,1.3841,-0.6628,1590577133,N
93,2012694,9.6287,1.2060,0.1675,0.4900,0.4900,-4.1300,999.2503,9.7051,1.3306,-0.4582,1590577133,N
93,2009373,9.5426,2.0459,-0.5767,2.1000,-1.8900,0.2800,999.2507,9.6860,1.4485,-0.5034,1590577133,N
93,2006029,9.6694,1.7396,-0.3254,-7.3500,6.4400,8.5400,999.2510,9.7085,1.3295,-0.3838,1590577133,N
93,2003894,9.8776,1.6008,0.1340,-4.6200,1.7500,1.7500,999.2516,9.7221,1.2600,-0.2525,1590577134,N
93,2002038,9.7196,2.1703,0.0622,17.1500,1.1900,4.4100,999.2524,9.7263,1.2371,-0.1959,1590577134,N
93,2001287,9.9972,1.5147,0.1890,-7.3500,-1.9600,0.7000,999.2532,9.7314,1.2062,-0.1263,1590577134,N
93,1998076,9.7220,2.0004,-0.1316,0.2800,-0.8400,-2.4500,999.2531,9.7121,1.3512,-0.1383,1590577134,N
93,1992897,9.7364,1.5529,-0.2560,-1.3300,-0.4200,2.0300,999.2532,9.7055,1.3957,-0.1633,1590577134,N
94,1989362,9.7603,1.8688,-0.2728,-6.2300,3.5000,3.7100,999.2535,9.7107,1.3609,-0.1458,1590577134,N
94,1986248,9.6335,1.6989,-0.0096,-2.4500,3.7100,5.3900,999.2535,9.7357,1.1747,-0.0808,1590577134,N
94,1983962,9.9876,1.1797,0.4953,-2.0300,-6.8600,8.0500,999.2532,9.4930,2.4602,-0.0186,1590577134,N
94,1982743,9.9900,1.3902,-0.5192,7.4900,-7.3500,-12.7400,999.2524,9.6229,1.8800,-0.1899,1590577134,N
94,1977330,9.5593,2.1057,-0.4738,-3.4300,6.7200,-3.0100,999.2513,9.6570,1.6967,-0.1821,1590577135,N
94,1972188,9.8321,1.5434,0.3781,-5.8800,1.5400,5.3900,999.2504,9.6739,1.6074,-0.0493,1590577135,N
94,1969414,9.7986,1.5553,-0.2130,0.7000,-2.6600,0.9100,999.2492,9.6420,1.7863,-0.1057,1590577135,N
94,1967140,9.8345,1.5075,-0.2034,-2.3800,3.0100,2.1700,999.2481,9.6917,1.4941,-0.0959,1590577135,N
94,1965324,9.7603,1.5817,0.2106,-2.3800,1.8900,2.4500,999.2474,9.7431,1.1145,-0.0165,1590577135,N
94,1964155,9.8010,1.2323,0.0957,1.1200,-4.6200,1.2600,999.2477,9.0924,3.6739,-0.0311,1590577135,N
94,1959192,9.8178,1.5960,-0.4522,1.2600,-1.4700,-2.9400,999.2466,9.6375,1.8088,-0.1285,1590577135,N
94,1955133,9.7005,1.6343,0.0167,-2.9400,1.9600,2.7300,999.2446,9.6591,1.6926,-0.0800,1590577135,N
94,1953273,9.8536,1.0241,-0.0383,1.8900,-2.5900,0.7000,999.2428,9.6443,1.7745,-0.0955,1590577135,N
94,1951945,9.8178,1.6367,-0.3350,0.6300,1.1200,-1.4000,999.2421,9.6772,1.5828,-0.1313,1590577135,N
94,1951719,9.7436,1.4859,0.1747,-0.8400,0.7000,1.1900,999.2410,9.6767,1.5898,-0.0636,1590577135,N
94,1952321,9.8441,1.3759,-0.0120,1.4700,-4.8300,1.0500,999.2407,9.5725,2.1280,-0.0959,1590577136,N
95,1949718,9.8584,2.4335,-0.3852,-28.0700,-0.5600,13.9300,999.2408,9.1871,3.4284,-0.1179,1590577136,N
94,1946107,9.9446,0.3422,-0.0048,-9.5200,1.0500,5.3900,999.2403,8.7084,4.5089,-0.0690,1590577136,N
95,1944753,9.8345,1.0169,-0.0694,3.0800,-4.2700,-0.6300,999.2402,9.3416,2.9818,-0.1173,1590577136,N
95,1944462,9.8465,1.3639,-0.4762,1.5400,-0.6300,-2.9400,999.2397,9.6528,1.7189,-0.1956,1590577136,N
95,1944966,9.8321,1.1390,0.0072,-1.6800,2.1000,1.5400,999.2397,9.6736,1.6045,-0.1349,1590577136,N
95,1946296,9.9470,1.0768,-0.0167,2.9400,-3.9200,-0.4200,999.2393,9.6409,1.7893,-0.1470,1590577136,N
95,1947454,9.8848,1.2299,-0.3637,2.8700,-1.1900,-3.9200,999.2390,9.6849,1.5272,-0.2025,1590577136,N
95,1945745,9.7196,1.5601,-0.1795,0.9800,0.9800,1.8900,999.2383,9.6943,1.4682,-0.1887,1590577136,N
95,1944835,9.8848,1.1653,-0.1149,0.6300,-2.8000,0.5600,999.2383,9.6876,1.5103,-0.1985,1590577136,N
95,1945343,9.8991,1.2443,-0.5503,2.8000,0.2800,-2.5200,999.2390,9.7048,1.3843,-0.2666,1590577137,N
95,1946116,9.7364,1.3687,-0.1819,-4.9000,4.9700,1.4000,999.2391,9.7236,1.2575,-0.2012,1590577137,N
96,1947373,9.8513,1.0361,0.1484,0.4200,-2.0300,1.4700,999.2388,9.7161,1.3219,-0.1455,1590577137,N
96,1949055,9.8800,1.1533,-0.4235,2.4500,-4.0600,-2.1700,999.2385,9.7066,1.3765,-0.2390,1590577137,N
95,1950562,9.8704,1.3184,-0.4259,-3.5000,4.6200,0.5600,999.2375,9.7251,1.2413,-0.2299,1590577137,N
96,1949357,9.8010,1.0911,0.2034,-1.1200,4.6200,2.4500,999.2370,9.7513,1.0363,-0.0974,1590577137,N
96,1949255,9.9422,1.0050,-0.3398,4.4800,-4.2000,-3.5000,999.2366,9.7330,1.1848,-0.1888,1590577137,N
96,1950215,9.7795,1.4022,-0.3900,-2.8000,4.6200,0.9100,999.2368,9.7409,1.1186,-0.1829,1590577137,N
96,1951166,9.7795,1.1007,0.1531,-0.4900,0.4900,2.2400,999.2364,9.7492,1.0547,-0.1080,1590577137,N
96,1952932,9.9182,0.9811,-0.2871,3.7100,-4.7600,-2.3800,999.2364,9.7316,1.1959,-0.1909,1590577138,N
96,1954774,9.7603,1.5123,-0.4642,-0.9100,3.5700,-0.2800,999.2365,9.7323,1.1866,-0.2093,1590577138,N
96,1956149,9.8297,1.1055,0.1292,-2.3100,1.7500,2.5200,999.2363,9.7447,1.0936,-0.1212,1590577138,N
96,1955949,9.8967,0.8997,-0.1555,4.6200,-4.4800,-1.4000,999.2355,9.7319,1.1965,-0.1721,1590577138,N
96,1956646,9.8704,1.3854,-0.5049,0.3500,2.1000,-0.9100,999.2337,9.7316,1.1912,-0.2155,1590577138,N
96,1957501,9.8010,1.1749,0.1005,-3.2900,3.3600,2.4500,999.2328,9.7483,1.0613,-0.1184,1590577138,N
96,1958658,9.8513,0.9212,0.1005,3.0800,-4.1300,-0.4900,999.2324,9.7264,1.2471,-0.1109,1590577138,N
96,1960353,9.8560,1.2538,-0.5432,1.6800,-4.1300,-1.5400,999.2321,9.7102,1.3522,-0.2306,1590577138,N
96,1961828,9.8058,1.2491,-0.0215,-1.8900,3.5700,0.4900,999.2318,9.7272,1.2360,-0.1560,1590577138,N
96,1963290,9.8249,1.0552,0.0239,2.4500,-2.6600,0.1400,999.2314,9.7145,1.3332,-0.1442,1590577138,N
96,1963448,9.9015,1.2969,-0.4283,1.9600,-0.2800,-2.5900,999.2322,9.7166,1.3101,-0.2024,1590577139,N
96,1964176,9.7866,1.3161,-0.0311,-2.3800,3.9900,1.4700,999.2325,9.7358,1.1693,-0.1307,1590577139,N
96,1965258,9.8489,1.1318,0.0957,1.9600,-2.8700,0.2800,999.2331,9.7187,1.3060,-0.1114,1590577139,N
96,1966805,9.8991,1.3472,-0.3781,3.0800,-3.0800,-2.8700,999.2340,9.7024,1.4129,-0.1923,1590577139,N
96,1968206,9.7747,1.3137,-0.1866,-2.5200,3.3600,0.9800,999.2350,9.7223,1.2734,-0.1588,1590577139,N
96,1969712,9.8393,1.2514,0.0622,0.4900,-2.0300,1.4000,999.2364,9.7107,1.3618,-0.1325,1590577139,N
96,1970415,9.8967,1.2012,-0.4235,1.8900,-2.1000,-1.8900,999.2368,9.7093,1.3619,-0.2101,1590577139,N
96,1970696,9.7843,1.3232,-0.2321,-4.0600,4.4800,1.0500,999.2371,9.7289,1.2205,-0.1707,1590577139,N
95,1971419,9.7843,1.1509,0.0909,1.6100,-1.7500,1.0500,999.2371,9.7232,1.2696,-0.1334,1590577139,N
96,1972642,9.8560,1.1581,-0.4475,4.0600,-3.0800,-2.3800,999.2360,9.7148,1.3196,-0.2266,1590577139,N
96,1973748,9.7173,1.1964,-0.2943,-4.9000,5.6000,2.5900,999.2346,9.7387,1.1375,-0.1851,1590577140,N
95,1974678,9.7866,1.2491,0.1651,1.0500,-0.4900,1.2600,999.2332,9.7402,1.1332,-0.1204,1590577140,N
95,1975314,9.9039,1.2897,-0.3063,1.3300,-3.6400,-0.7700,999.2322,9.7193,1.2918,-0.1897,1590577140,N
95,1974983,9.7005,0.9619,-0.3135,-8.8200,3.1500,6.3000,999.2311,9.7441,1.0911,-0.1789,1590577140,N
95,1975034,9.8632,1.0313,0.0263,2.1000,-2.1000,-0.0700,999.2303,9.7374,1.1523,-0.1572,1590577140,N
95,1975708,9.8776,1.0935,-0.3230,5.1100,-3.0800,-3.5700,999.2296,9.7276,1.2225,-0.2221,1590577140,N
95,1976692,9.7843,1.3615,-0.3111,-2.7300,4.3400,-3.5700,999.2290,9.7334,1.1794,-0.2008,1590577140,N
95,1977380,9.7723,1.1629,0.1412,-2.7300,0.2800,0.7000,999.2283,9.7363,1.1657,-0.1271,1590577140,N
94,1977946,9.8608,1.1414,-0.3350,2.3800,-2.6600,-1.5400,999.2280,9.7253,1.2458,-0.1944,1590577140,N
95,1977102,9.7627,1.3615,-0.2154,-2.7300,3.6400,0.7000,999.2283,9.7361,1.1632,-0.1635,1590577140,N
95,1976641,9.7340,1.1581,0.1412,0.6300,-0.8400,1.1900,999.2284,9.7358,1.1715,-0.1090,1590577141,N
94,1976895,9.9254,1.0935,-0.3781,3.5700,-3.1500,-1.5400,999.2286,9.7250,1.2481,-0.1936,1590577141,N
94,1977469,9.8273,1.4046,-0.3135,-2.6600,4.2000,0.2800,999.2288,9.7353,1.1675,-0.1764,1590577141,N
94,1977849,9.8178,1.2132,0.2369,0.0700,-0.7000,1.0500,999.2294,9.7365,1.1664,-0.0998,1590577141,N
94,1978236,9.9230,1.0768,-0.2273,5.8100,-4.5500,-2.4500,999.2298,9.7173,1.3096,-0.1708,1590577141,N
94,1976786,9.7771,1.3615,-0.4451,-2.3800,3.3600,0.2800,999.2301,9.7280,1.2246,-0.1911,1590577141,N
94,1975440,9.7627,1.2323,0.1962,0.2100,0.7700,0.7700,999.2301,9.7352,1.1764,-0.1065,1590577141,N
94,1975508,9.9278,1.0098,-0.2321,4.0600,-5.1800,-2.1700,999.2299,9.7155,1.3212,-0.1824,1590577141,N
94,1975790,9.7986,1.4094,-0.4259,-3.2200,1.9600,0.3500,999.2300,9.7197,1.2859,-0.2083,1590577141,N
94,1975780,9.7819,1.2730,0.1723,-0.4200,0.3500,0.4900,999.2296,9.7215,1.2831,-0.1291,1590577141,N
94,1976290,9.9063,0.9906,-0.2632,3.7800,-4.4800,-0.8400,999.2294,9.7133,1.3352,-0.2001,1590577142,N
94,1974472,9.8393,1.4022,-0.5121,-0.7700,2.9400,-0.2800,999.2288,9.7217,1.2673,-0.2314,1590577142,N
94,1972753,9.7866,1.1773,0.1507,-1.6800,1.7500,1.9600,999.2284,9.7327,1.1946,-0.1362,1590577142,N
94,1972457,9.8560,1.0600,-0.1555,3.1500,-3.8500,-0.3500,999.2283,9.7199,1.2898,-0.1765,1590577142,N
94,1972356,9.8154,1.4046,-0.4953,-0.2100,2.5200,-0.6300,999.2277,9.7249,1.2454,-0.2136,1590577142,N
94,1972343,9.7962,1.2156,0.1196,-2.3100,3.0800,1.8200,999.2277,9.7416,1.1218,-0.1167,1590577142,N
94,1972809,9.8513,1.1151,-0.0550,2.6600,-3.9900,-0.4200,999.2279,9.7219,1.2790,-0.1415,1590577142,N
93,1970933,9.8704,1.3496,-0.5288,1.1900,0.4900,-1.5400,999.2283,9.7206,1.2790,-0.2112,1590577142,N
94,1968838,9.7843,1.2778,0.0335,-2.8700,4.0600,1.6800,999.2285,9.7402,1.1333,-0.1234,1590577142,N
93,1967979,9.8441,1.1198,0.0790,1.1200,-3.0100,0.6300,999.2280,9.7242,1.2639,-0.1094,1590577142,N
93,1968133,9.8919,1.2802,-0.4475,3.0100,-1.1200,-2.1000,999.2277,9.7190,1.2947,-0.1866,1590577143,N
94,1968336,9.8130,1.2299,0.0120,-1.8200,3.7100,1.0500,999.2275,9.7395,1.1400,-0.1118,1590577143,N
93,1968680,9.8010,1.1318,0.1172,3.7100,-3.7800,-0.4900,999.2267,9.7141,1.3402,-0.1014,1590577143,N
93,1970043,9.8871,1.3735,-0.4977,4.2700,-2.1000,-2.6600,999.2264,9.7054,1.3918,-0.1983,1590577143,N
94,1968734,9.8489,1.3687,-0.2034,-2.1700,5.8100,0.5600,999.2256,9.7329,1.1916,-0.1449,1590577143,N
94,1967791,9.7914,1.1725,0.1101,2.8700,-0.9800,-0.7700,999.2262,9.7314,1.2079,-0.1035,1590577143,N
94,1968011,9.9517,1.1605,-0.3374,4.8300,-2.2400,-2.8700,999.2263,9.7211,1.2810,-0.1745,1590577143,N
94,1968132,9.8273,1.3041,-0.0957,3.5700,3.2200,-2.1700,999.2265,9.7352,1.1737,-0.1330,1590577143,N
94,1968781,9.7866,1.4453,0.1005,6.7900,-2.7300,-3.1500,999.2263,9.7208,1.2897,-0.1179,1590577143,N
94,1970986,9.8321,1.3711,-0.4307,5.8100,-3.5700,-4.9000,999.2263,9.6957,1.4546,-0.2180,1590577143,N
94,1973006,9.7819,1.6678,-0.4187,-1.1900,3.2900,-1.0500,999.2260,9.6996,1.4269,-0.2264,1590577144,N
94,1974275,9.7723,1.4836,0.1077,-1.6100,-0.7700,1.6800,999.2250,9.6989,1.4404,-0.1641,1590577144,N
94,1975975,9.8417,1.3831,-0.4044,2.3800,-4.8300,-1.6100,999.2248,9.6769,1.5690,-0.2574,1590577144,N
94,1976813,9.8584,1.6008,-0.4810,-0.8400,2.8000,0.0700,999.2251,9.6876,1.4984,-0.2735,1590577144,N
94,1975808,9.7986,1.4812,0.0742,-1.7500,0.3500,1.4700,999.2249,9.6918,1.4834,-0.1983,1590577144,N
94,1976089,9.8680,1.3424,-0.2010,1.5400,-4.0600,-0.8400,999.2246,9.6758,1.5788,-0.2361,1590577144,N
94,1976709,9.7364,1.6415,-0.5480,-1.5400,3.5700,0.1400,999.2249,9.6882,1.4965,-0.2621,1590577144,N
94,1977137,9.7388,1.3567,-0.0072,-2.1000,1.9600,2.1000,999.2248,9.7030,1.4090,-0.1895,1590577144,N
94,1978119,9.9087,1.2730,-0.1914,3.2200,-4.1300,-1.0500,999.2248,9.6888,1.4986,-0.2291,1590577144,N
94,1979567,9.7962,1.6104,-0.6245,0.4900,2.3800,-0.9100,999.2256,9.6920,1.4681,-0.2829,1590577144,N
93,1980585,9.7436,1.4572,0.0957,-2.3800,3.0800,2.2400,999.2257,9.7099,1.3628,-0.1763,1590577145,N
94,1981369,9.8417,1.1749,-0.0981,3.3600,-4.0600,-0.0700,999.2262,9.6970,1.4489,-0.1983,1590577145,N
94,1981154,9.8058,1.6008,-0.5527,0.2800,1.1200,-1.0500,999.2267,9.6943,1.4578,-0.2556,1590577145,N
94,1981108,9.7795,1.4237,0.0670,-2.8000,2.4500,2.0300,999.2267,9.7090,1.3703,-0.1658,1590577145,N
93,1981609,9.8082,1.3113,-0.0766,2.4500,-4.0600,-0.0700,999.2266,9.6892,1.5016,-0.1854,1590577145,N
93,1982651,9.7747,1.5242,-0.5527,-1.4000,0.9800,-0.7700,999.2261,9.6915,1.4779,-0.2459,1590577145,N
93,1983328,9.7890,1.4572,-0.0383,-3.2900,2.9400,1.8200,999.2253,9.7072,1.3819,-0.1748,1590577145,N
93,1984485,9.7843,1.2538,-0.1484,2.8000,-4.2700,-0.3500,999.2244,9.6905,1.4899,-0.2094,1590577145,N
93,1985947,9.8536,1.6726,-0.5288,0.7700,0.2100,-1.1200,999.2238,9.6845,1.5195,-0.2676,1590577145,N
93,1986355,9.7819,1.3783,0.0215,-2.8700,3.7800,1.4700,999.2234,9.7066,1.3867,-0.1724,1590577145,N
93,1985648,9.7651,1.3783,0.0526,1.6800,-3.5000,-0.1400,999.2231,9.6846,1.5340,-0.1594,1590577146,N
93,1986113,9.7819,1.5649,-0.5145,1.1200,-0.2800,-1.4000,999.2222,9.6828,1.5365,-0.2309,1590577146,N
93,1986615,9.8393,1.4189,-0.0479,-2.7300,3.4300,0.8400,999.2218,9.7040,1.4058,-0.1608,1590577146,N
93,1987206,9.8321,1.3017,0.0431,1.6800,-3.5700,-0.2800,999.2209,9.6810,1.5572,-0.1520,1590577146,N
94,1988488,9.7675,1.5960,-0.5551,1.8200,-1.1900,-1.6100,999.2205,9.6750,1.5835,-0.2409,1590577146,N
94,1989413,9.7699,1.5003,-0.1268,-2.8700,2.9400,1.6100,999.2206,9.6933,1.4745,-0.1889,1590577146,N
94,1990203,9.8082,1.3472,-0.0814,0.8400,-2.3100,1.1200,999.2203,9.6852,1.5269,-0.1874,1590577146,N
94,1991018,9.8154,1.5266,-0.4690,0.7700,-0.3500,-1.2600,999.2203,9.6839,1.5269,-0.2454,1590577146,N
94,1990338,9.7651,1.4716,-0.0646,-2.1700,2.4500,0.9100,999.2206,9.6978,1.4453,-0.1853,1590577146,N
94,1990360,9.7890,1.4740,-0.0814,1.4700,-3.3600,0.1400,999.2203,9.6787,1.5670,-0.1953,1590577146,N
94,1991208,9.7866,1.5721,-0.5599,1.1900,0.6300,-1.1200,999.2195,9.6819,1.5373,-0.2605,1590577147,N
94,1991542,9.7101,1.4309,-0.0167,-2.5200,3.9900,1.6100,999.2190,9.7054,1.3949,-0.1729,1590577147,N
93,1992109,9.7699,1.2897,0.0239,1.7500,-3.2200,0.6300,999.2189,9.6902,1.4982,-0.1619,1590577147,N
94,1993309,9.8848,1.5529,-0.5575,2.3100,-0.9800,-2.1000,999.2182,9.6832,1.5311,-0.2478,1590577147,N
93,1994058,9.7819,1.3807,-0.0814,-3.3600,5.3200,1.8200,999.2180,9.7141,1.3341,-0.1629,1590577147,N
93,1992651,9.7651,1.3424,0.1436,1.4700,-2.3800,0.4900,999.2180,9.7023,1.4214,-0.1229,1590577147,N
93,1992389,9.8632,1.3926,-0.5958,0.5600,-1.5400,-0.9100,999.2181,9.6943,1.4622,-0.2286,1590577147,N
93,1992249,9.7747,1.4955,-0.0837,-2.8000,4.8300,1.3300,999.2185,9.7180,1.3065,-0.1539,1590577147,N
93,1992039,9.8106,1.3137,0.1220,2.1000,-2.5200,-0.0700,999.2185,9.7055,1.3997,-0.1218,1590577147,N
93,1992608,9.8369,1.5290,-0.4977,3.0800,-2.1700,-2.9400,999.2178,9.6866,1.5145,-0.2162,1590577147,N
93,1993172,9.7675,1.5864,-0.1603,-2.5900,3.9900,1.2600,999.2165,9.7060,1.3914,-0.1668,1590577148,N
93,1993283,9.8225,1.3543,0.0311,0.9800,-2.2400,0.5600,999.2151,9.6952,1.4670,-0.1468,1590577148,N
93,1992161,9.8465,1.4237,-0.5049,2.5900,-2.0300,-1.8200,999.2148,9.6866,1.5110,-0.2372,1590577148,N
92,1990658,9.7555,1.5338,-0.1172,-3.1500,4.5500,1.1200,999.2149,9.7087,1.3719,-0.1698,1590577148,N
93,1989713,9.7723,1.3854,0.1627,1.0500,-2.1700,0.5600,999.2144,9.6976,1.4533,-0.1225,1590577148,N
92,1989517,9.9039,1.2658,-0.4762,4.2700,-3.0100,-2.8700,999.2141,9.6903,1.4890,-0.2245,1590577148,N
92,1989621,9.7603,1.5721,-0.2034,-2.5900,3.7100,1.0500,999.2137,9.7060,1.3891,-0.1845,1590577148,N
92,1989677,9.7747,1.4213,0.0861,-0.4200,-2.0300,0.7000,999.2139,9.6947,1.4701,-0.1476,1590577148,N
92,1990301,9.8536,1.4118,-0.4331,2.5200,-3.1500,-1.8200,999.2130,9.6811,1.5465,-0.2340,1590577148,N
92,1988307,9.7603,1.5027,-0.2441,-2.6600,3.5700,1.1900,999.2113,9.7002,1.4271,-0.2012,1590577148,N
92,1985891,9.7603,1.3950,0.0574,0.4200,-1.3300,0.8400,999.2098,9.6948,1.4679,-0.1607,1590577149,N
92,1985178,9.8297,1.2873,-0.3996,4.0600,-3.7800,-1.8200,999.2089,9.6852,1.5188,-0.2462,1590577149,N
92,1985103,9.8082,1.6128,-0.2895,-0.3500,4.0600,0.1400,999.2084,9.7012,1.4180,-0.2172,1590577149,N
92,1984810,9.7077,1.4883,0.1053,-0.3500,-1.1900,0.7000,999.2083,9.6955,1.4633,-0.1631,1590577149,N
91,1985199,9.8010,1.4381,-0.3135,3.9900,-3.7100,-2.1000,999.2089,9.6773,1.5707,-0.2296,1590577149,N
92,1985580,9.7364,1.7731,-0.4857,-1.8200,2.8700,0.2800,999.2086,9.6821,1.5378,-0.2505,1590577149,N
91,1982884,9.7723,1.0600,0.0550,-3.2200,0.2100,3.3600,999.2091,9.6934,1.4755,-0.1782,1590577149,N
91,1980799,9.8154,1.3831,-0.3350,2.1000,-2.8700,-1.6800,999.2093,9.6830,1.5344,-0.2368,1590577149,N
91,1979756,9.7699,1.6223,-0.4092,-2.2400,3.4300,-0.0700,999.2089,9.6943,1.4612,-0.2370,1590577149,N
91,1978570,9.7196,1.4429,0.0550,-1.6800,1.5400,1.7500,999.2095,9.7049,1.3998,-0.1625,1590577149,N
91,1978464,9.8991,1.3017,-0.2106,2.8700,-3.4300,-0.6300,999.2096,9.6919,1.4820,-0.2046,1590577150,N
91,1978996,9.7914,1.4812,-0.4379,-1.8900,2.8700,0.6300,999.2099,9.7043,1.3959,-0.2220,1590577150,N
91,1978980,9.8010,1.4572,0.1412,-1.8900,0.9800,1.4000,999.2100,9.7114,1.3561,-0.1393,1590577150,N
91,1978191,9.8489,1.3663,-0.2034,2.8700,-4.6900,-0.9800,999.2108,9.6854,1.5247,-0.1959,1590577150,N
91,1976366,9.8369,1.5745,-0.5216,-0.4900,1.8900,-0.4200,999.2117,9.6925,1.4725,-0.2401,1590577150,N
90,1974618,9.7555,1.4333,0.0909,-2.5900,2.5200,1.5400,999.2122,9.7079,1.3800,-0.1486,1590577150,N
90,1973918,9.8249,1.3352,-0.1196,1.4700,-3.7100,0.5600,999.2125,9.6887,1.5058,-0.1763,1590577150,N
90,1973784,9.7962,1.4907,-0.5216,1.1900,0.0700,-1.7500,999.2131,9.6895,1.4918,-0.2435,1590577150,N
90,1973842,9.8058,1.4094,0.0120,-2.9400,3.0800,1.6100,999.2126,9.7077,1.3799,-0.1617,1590577150,N
90,1974279,9.7627,1.3448,0.0263,2.5900,-4.3400,-0.2100,999.2120,9.6805,1.5590,-0.1641,1590577150,N
90,1975523,9.8680,1.5051,-0.6173,6.4400,-0.7700,-3.0800,999.2117,9.6834,1.5274,-0.2628,1590577151,N
90,1974479,9.8297,1.5601,-0.0287,-0.9800,4.3400,0.5600,999.2118,9.7052,1.3957,-0.1766,1590577151,N
89,1972628,9.8297,1.3950,-0.0048,1.6800,-3.2200,-0.2800,999.2122,9.6882,1.5098,-0.1717,1590577151,N
90,1972513,9.8991,1.4644,-0.5862,2.3800,-1.5400,-1.4700,999.2120,9.6831,1.5284,-0.2673,1590577151,N
90,1972389,9.7723,1.4812,-0.1101,-3.2900,3.7100,1.1900,999.2124,9.7017,1.4168,-0.1994,1590577151,N
89,1972289,9.7508,1.3878,0.0574,0.9800,-3.5000,0.4900,999.2126,9.6832,1.5407,-0.1789,1590577151,N
89,1973342,9.7890,1.6080,-0.5910,2.2400,-2.2400,-2.5200,999.2124,9.6687,1.6153,-0.2798,1590577151,N
89,1974097,9.7173,1.6056,-0.1603,-3.7800,4.9000,2.1000,999.2128,9.6934,1.4714,-0.2084,1590577151,N
89,1973319,9.7675,1.3878,0.1149,2.3800,-1.6100,0.5600,999.2128,9.6882,1.5111,-0.1582,1590577151,N
88,1972387,9.8967,1.4836,-0.4738,7.2800,-2.8000,-2.8000,999.2130,9.6782,1.5622,-0.2507,1590577151,N
88,1972302,9.7125,1.5936,-0.0909,8.1900,3.0800,1.7500,999.2134,9.7014,1.4192,-0.1965,1590577152,N
88,1973000,9.6455,1.7157,0.1986,19.0400,-4.2700,-2.5900,999.2125,9.6883,1.5089,-0.1741,1590577152,N
88,1975080,9.9876,1.5529,-0.8734,20.6500,-19.6700,-0.4900,999.2120,9.6179,1.8498,-0.4956,1590577152,N
88,1976207,9.7627,1.9573,-0.9691,-10.5700,-1.1900,2.5900,999.2116,9.6059,1.8875,-0.5781,1590577152,N
88,1977014,9.7986,1.5051,-0.6987,-9.6600,-0.7000,1.5400,999.2108,9.6194,1.8112,-0.5971,1590577152,N
88,1976908,9.8536,1.4189,-0.7274,-7.7000,-0.1400,2.1000,999.2104,9.6371,1.7089,-0.6136,1590577152,N
88,1975460,9.8010,1.5505,-0.8423,-7.2100,2.6600,3.2900,999.2103,9.6526,1.6164,-0.6208,1590577152,N
87,1974623,9.7316,1.4381,-0.3781,-4.9700,-0.7000,2.5900,999.2097,9.6604,1.5878,-0.5705,1590577152,N
87,1975311,9.8393,1.3519,-0.6580,0.5600,-4.4100,0.2100,999.2095,9.6591,1.5752,-0.6254,1590577152,N
87,1975981,9.7890,1.6463,-0.9380,-2.6600,1.2600,-0.6300,999.2095,9.6557,1.5779,-0.6690,1590577152,N
87,1976739,9.6622,1.4261,-0.3948,-0.7700,0.8400,2.0300,999.2101,9.6678,1.5301,-0.6027,1590577153,N
87,1977553,9.8776,1.3424,-0.6365,1.7500,-3.5700,1.1200,999.2105,9.6689,1.5082,-0.6387,1590577153,N
87,1977312,9.8010,1.5864,-1.0074,-0.3500,0.4900,-1.1900,999.2103,9.6620,1.5241,-0.7027,1590577153,N
87,1976271,9.7340,1.5170,-0.5719,-2.1700,2.1000,1.2600,999.2104,9.6701,1.4940,-0.6532,1590577153,N
86,1976163,9.8465,1.2682,-0.6461,1.4000,-3.1500,1.1200,999.2106,9.6736,1.4605,-0.6776,1590577153,N
87,1976639,9.8752,1.4836,-0.9356,1.1900,1.9600,-1.2600,999.2106,9.6731,1.4488,-0.7095,1590577153,N
86,1976425,9.7699,1.3304,-0.4020,-3.2200,3.5700,2.2400,999.2109,9.6901,1.3796,-0.6072,1590577153,N
86,1976793,9.9015,1.3017,-0.4642,1.6800,-2.8000,0.4200,999.2110,9.6899,1.3832,-0.6018,1590577153,N
86,1977765,9.7723,1.3424,-0.9380,-1.1200,0.0700,-2.3100,999.2114,9.6839,1.3951,-0.6684,1590577153,N
86,1976102,9.7364,1.4859,-0.4522,-2.7300,3.2200,1.2600,999.2115,9.6919,1.3735,-0.5917,1590577153,N
86,1974485,9.7723,1.3256,-0.4618,1.3300,-2.1700,0.7700,999.2118,9.6920,1.3769,-0.5836,1590577154,N
85,1974409,9.7938,1.4716,-0.9284,0.7700,0.1400,-1.8900,999.2120,9.6829,1.4098,-0.6508,1590577154,N
86,1974552,9.7699,1.4644,-0.4475,-4.2000,4.4800,2.3800,999.2122,9.6958,1.3586,-0.5615,1590577154,N
86,1974810,9.7938,1.2706,-0.3733,1.4000,-2.2400,0.6300,999.2122,9.6970,1.3579,-0.5421,1590577154,N
86,1976045,9.8704,1.3448,-0.8566,1.4000,-0.9800,-1.8200,999.2133,9.6902,1.3758,-0.6138,1590577154,N
85,1976686,9.7603,1.4548,-0.5527,-3.2200,4.2700,1.1900,999.2143,9.6986,1.3399,-0.5580,1590577154,N
86,1974649,9.8297,1.2754,-0.2321,0.7700,-1.8200,0.6300,999.2151,9.7011,1.3428,-0.5057,1590577154,N
85,1973404,9.8441,1.3807,-0.8423,2.9400,-2.1700,-2.3100,999.2153,9.6898,1.3877,-0.5943,1590577154,N
85,1973155,9.7771,1.5410,-0.5910,-3.7800,3.7800,1.6800,999.2156,9.6953,1.3659,-0.5529,1590577154,N
85,1972924,9.8010,1.2610,-0.2417,1.4700,-2.5200,0.5600,999.2155,9.6969,1.3709,-0.5106,1590577154,N
85,1973780,9.7795,1.3232,-0.8303,3.1500,-2.7300,-2.3800,999.2155,9.6869,1.4043,-0.6027,1590577155,N
85,1974742,9.7819,1.2897,-0.4857,3.0800,3.7100,-0.7700,999.2151,9.6988,1.3425,-0.5489,1590577155,N
85,1976423,9.7938,1.4764,-0.3326,0.2800,-3.1500,0.9100,999.2151,9.6927,1.3922,-0.5320,1590577155,N
85,1975218,9.8536,1.3376,-0.8686,1.8900,-2.5200,-1.9600,999.2150,9.6836,1.4177,-0.6227,1590577155,N
85,1974296,9.7747,1.5434,-0.6269,-3.3600,3.8500,0.9100,999.2152,9.6890,1.3972,-0.5836,1590577155,N
85,1973889,9.7723,1.3639,-0.2369,-0.0700,-2.0300,1.2600,999.2149,9.6909,1.4065,-0.5282,1590577155,N
85,1974282,9.8656,1.2562,-0.8183,3.5000,-3.7100,-2.4500,999.2145,9.6827,1.4235,-0.6237,1590577155,N
85,1975088,9.7364,1.4979,-0.6915,-2.3800,3.9900,0.6300,999.2141,9.6886,1.3942,-0.5974,1590577155,N
85,1975796,9.7555,1.3615,-0.2417,1.1900,3.9900,1.4700,999.2139,9.7040,1.3291,-0.4869,1590577155,N
85,1977669,9.8560,1.2347,-0.7848,3.2200,-2.5900,-1.4700,999.2139,9.6972,1.3438,-0.5727,1590577155,N
85,1976860,9.6861,1.4429,-0.7155,-2.2400,4.6200,1.3300,999.2133,9.7029,1.3098,-0.5550,1590577156,N
85,1975267,9.7866,1.3759,-0.2752,1.0500,-1.1900,0.9100,999.2128,9.7038,1.3225,-0.5074,1590577156,N
85,1974861,9.8728,1.2538,-0.6915,2.5900,-3.0800,-3.9200,999.2121,9.6934,1.3683,-0.5790,1590577156,N
85,1975086,9.7651,1.5888,-0.6389,-2.4500,3.7100,0.0700,999.2109,9.6942,1.3730,-0.5546,1590577156,N
85,1975164,9.7196,1.3304,-0.2584,-0.4900,-0.3500,1.7500,999.2101,9.7000,1.3551,-0.4932,1590577156,N
85,1976058,9.8369,1.2443,-0.6891,3.9200,-3.6400,-0.7000,999.2092,9.6941,1.3684,-0.5679,1590577156,N
85,1977409,9.8010,1.5577,-0.8016,-2.0300,3.9900,-0.7000,999.2084,9.6930,1.3730,-0.5751,1590577156,N
85,1976590,9.7771,1.3113,-0.2082,-2.1000,1.5400,1.6800,999.2083,9.7036,1.3338,-0.4806,1590577156,N
85,1975042,9.8752,1.2491,-0.6365,3.7100,-3.5000,-0.9800,999.2071,9.6974,1.3540,-0.5459,1590577156,N
85,1974830,9.7843,1.4548,-0.6963,-0.6300,1.7500,-0.2800,999.2065,9.6962,1.3571,-0.5583,1590577156,N
84,1974666,9.8154,1.3280,-0.3135,-0.7000,-0.4900,1.2600,999.2060,9.7004,1.3466,-0.5093,1590577157,N
85,1975127,9.8225,1.2323,-0.6676,2.7300,-3.7100,-0.8400,999.2054,9.6945,1.3622,-0.5765,1590577157,N
85,1976271,9.7484,1.5075,-0.7011,-0.4200,2.3800,-0.4900,999.2045,9.6932,1.3697,-0.5790,1590577157,N
84,1976746,9.7436,1.2754,-0.2154,-0.7700,0.3500,0.9800,999.2041,9.7010,1.3460,-0.4984,1590577157,N
85,1977276,9.8560,1.1844,-0.6700,2.5200,-4.2700,-0.8400,999.2043,9.6954,1.3570,-0.5731,1590577157,N
84,1976366,9.8273,1.7539,-0.8375,-3.7100,1.6100,-0.3500,999.2042,9.6836,1.4255,-0.6045,1590577157,N
84,1975385,9.6766,1.3113,-0.2919,-1.4000,0.9100,2.1700,999.2038,9.6943,1.3831,-0.5278,1590577157,N
84,1975526,9.8584,1.2826,-0.5695,3.2200,-3.5700,-0.8400,999.2038,9.6895,1.3992,-0.5704,1590577157,N
84,1976407,9.8465,1.5003,-0.9165,0.1400,2.5200,-0.6300,999.2039,9.6874,1.3961,-0.6121,1590577157,N
84,1976890,9.6694,1.5051,-0.3374,-3.4300,4.2700,2.9400,999.2039,9.6998,1.3499,-0.5119,1590577157,N
84,1977564,9.8656,1.0911,-0.4044,3.0800,-2.5900,-1.5400,999.2043,9.7017,1.3342,-0.5172,1590577158,N
84,1978253,9.7986,1.5984,-0.7801,-0.9100,2.2400,-0.0700,999.2045,9.6960,1.3641,-0.5454,1590577158,N
84,1977117,9.6933,1.4357,-0.3182,-2.6600,2.7300,1.5400,999.2050,9.7039,1.3356,-0.4709,1590577158,N
84,1976827,9.8560,1.2371,-0.4211,2.1700,-2.5900,-0.0700,999.2050,9.7024,1.3412,-0.4845,1590577158,N
84,1977342,9.8249,1.4309,-0.7633,0.3500,1.7500,-1.1900,999.2045,9.6993,1.3489,-0.5233,1590577158,N
84,1977522,9.7412,1.4070,-0.1388,-0.9800,2.6600,1.4700,999.2046,9.7094,1.3123,-0.4185,1590577158,N
84,1978362,9.8704,1.2060,-0.2680,4.4800,-5.1800,-0.1400,999.2048,9.7029,1.3543,-0.4362,1590577158,N
84,1979940,9.9254,1.0146,-0.6867,5.3900,-4.5500,-4.6200,999.2048,9.6977,1.3545,-0.5392,1590577158,N
84,1980569,9.6933,1.7228,-0.7011,3.9200,-2.4500,-1.7500,999.2043,9.6786,1.4621,-0.5984,1590577158,N
84,1979698,9.8728,1.2873,-0.5767,1.8200,-2.8000,1.5400,999.2035,9.6817,1.4339,-0.6161,1590577158,N
84,1979785,9.7843,1.4668,-0.9308,0.0700,1.3300,-1.1200,999.2020,9.6784,1.4344,-0.6647,1590577159,N
84,1980066,9.7220,1.5529,-0.4044,-3.0800,3.8500,1.6800,999.2016,9.6882,1.4073,-0.5730,1590577159,N
84,1980681,9.8465,1.2538,-0.4451,1.0500,-2.8000,1.9600,999.2009,9.6916,1.3861,-0.5681,1590577159,N
84,1982134,9.7819,1.4620,-0.9787,1.4000,-0.2100,-2.0300,999.2004,9.6815,1.4198,-0.6512,1590577159,N
84,1983056,9.7412,1.4333,-0.4164,-3.7100,2.9400,1.2600,999.2000,9.6911,1.3879,-0.5721,1590577159,N
84,1983186,9.8225,1.3328,-0.4020,2.9400,-4.2700,1.2600,999.1995,9.6882,1.4067,-0.5746,1590577159,N
84,1982625,9.7531,1.5649,-1.0576,0.7700,-0.2800,-1.9600,999.1989,9.6741,1.4604,-0.6704,1590577159,N
84,1982374,9.7460,1.4548,-0.4810,-3.2200,4.2000,1.7500,999.1989,9.6874,1.4063,-0.5886,1590577159,N
84,1982440,9.8130,1.3041,-0.4092,2.3800,-3.2900,0.2100,999.1985,9.6865,1.4156,-0.5818,1590577159,N
84,1983280,9.8058,1.5003,-0.9595,2.3800,-1.2600,-2.4500,999.1981,9.6740,1.4613,-0.6694,1590577159,N
84,1984009,9.6885,1.5314,-0.5838,-3.2200,4.3400,1.4000,999.1975,9.6836,1.4243,-0.6083,1590577160,N
84,1984546,9.7603,1.3854,-0.3565,1.1900,-2.2400,1.3300,999.1970,9.6850,1.4282,-0.5750,1590577160,N
84,1984336,9.8369,1.4142,-0.9906,2.7300,-1.4700,-2.3100,999.1960,9.6750,1.4535,-0.6719,1590577160,N
84,1983195,9.7220,1.5099,-0.6030,-3.5700,4.8300,1.4700,999.1962,9.6859,1.4084,-0.6088,1590577160,N
84,1982696,9.7795,1.3878,-0.2800,1.6100,-1.8900,1.1900,999.1963,9.6883,1.4129,-0.5569,1590577160,N
84,1983067,9.8656,1.4572,-0.9691,3.3600,-2.6600,-2.6600,999.1970,9.6739,1.4645,-0.6643,1590577160,N
84,1983558,9.7699,1.4309,-0.6269,-2.1000,4.6200,0.3500,999.1980,9.6854,1.4101,-0.6121,1590577160,N
84,1983796,9.8130,1.4572,-0.3254,1.8200,-2.1700,-0.1400,999.1984,9.6836,1.4385,-0.5740,1590577160,N
84,1984866,9.8489,1.4022,-0.8877,2.1700,-2.2400,-1.4000,999.1987,9.6752,1.4588,-0.6571,1590577160,N
84,1983402,9.8273,1.4692,-0.5910,-2.6600,3.9900,1.4000,999.1980,9.6863,1.4087,-0.6017,1590577160,N
84,1981708,9.7316,1.4237,-0.2656,-0.1400,-1.8900,0.4900,999.1965,9.6862,1.4305,-0.5489,1590577161,N
84,1981513,9.8560,1.3854,-0.8447,3.0800,-2.8700,-1.6800,999.1947,9.6771,1.4562,-0.6353,1590577161,N
84,1981474,9.7651,1.4716,-0.6461,-3.2200,4.2700,1.2600,999.1931,9.6870,1.4072,-0.5933,1590577161,N
84,1981249,9.7196,1.3663,-0.2584,0.7000,-1.5400,0.9800,999.1929,9.6898,1.4105,-0.5371,1590577161,N
84,1982083,9.8441,1.3448,-0.7801,3.3600,-3.7100,-2.0300,999.1921,9.6798,1.4437,-0.6222,1590577161,N
84,1983022,9.7627,1.5003,-0.6317,-2.8000,4.1300,0.7700,999.1913,9.6877,1.4072,-0.5825,1590577161,N
85,1981435,9.7651,1.3424,-0.2512,0.8400,-1.2600,0.8400,999.1904,9.6915,1.4036,-0.5245,1590577161,N
84,1980306,9.8704,1.3065,-0.9165,2.6600,-3.7800,-2.1700,999.1895,9.6803,1.4335,-0.6380,1590577161,N
84,1980373,9.7316,1.4477,-0.6126,-2.5900,3.5700,0.8400,999.1887,9.6885,1.3955,-0.5968,1590577161,N
84,1979793,9.7651,1.3854,-0.2824,0.5600,-1.9600,0.4900,999.1877,9.6888,1.4126,-0.5494,1590577161,N
85,1980460,9.7890,1.3902,-0.9284,2.8000,-2.5200,-1.9600,999.1873,9.6779,1.4448,-0.6492,1590577162,N
84,1981003,9.7412,1.4453,-0.6317,-3.2900,3.8500,1.1900,999.1862,9.6874,1.3995,-0.6057,1590577162,N
84,1981330,9.7723,1.3615,-0.3661,0.6300,-2.3100,0.5600,999.1855,9.6873,1.4121,-0.5764,1590577162,N
85,1980403,9.8656,1.3878,-0.9667,2.5900,-2.8700,-2.3800,999.1852,9.6752,1.4480,-0.6807,1590577162,N
85,1979316,9.7579,1.5482,-0.6532,-3.0800,4.4100,0.9100,999.1863,9.6829,1.4193,-0.6306,1590577162,N
85,1978532,9.7364,1.4501,-0.3278,-0.4900,-1.4000,1.3300,999.1874,9.6845,1.4306,-0.5787,1590577162,N
85,1978619,9.8608,1.4094,-0.9308,1.9600,-2.1000,-1.8200,999.1886,9.6750,1.4560,-0.6677,1590577162,N
85,1979084,9.7651,1.5170,-0.5073,-3.0800,4.4800,1.2600,999.1898,9.6862,1.4144,-0.5900,1590577162,N
85,1979400,9.7890,1.3831,-0.2991,1.0500,-2.5900,0.9800,999.1906,9.6864,1.4280,-0.5521,1590577162,N
85,1980441,9.8297,1.3496,-0.9093,2.3800,-1.4700,-1.8200,999.1919,9.6800,1.4355,-0.6378,1590577162,N
85,1978763,9.8058,1.4429,-0.5073,-3.1500,3.9200,1.1200,999.1924,9.6910,1.3889,-0.5709,1590577163,N
85,1977039,9.7819,1.3448,-0.3661,1.6100,-2.6600,0.4900,999.1930,9.6901,1.4028,-0.5526,1590577163,N
85,1977145,9.8058,1.3519,-0.8758,1.4000,-1.2600,-1.7500,999.1933,9.6834,1.4160,-0.6293,1590577163,N
85,1977004,9.7675,1.3998,-0.4834,-3.2200,3.7100,0.9800,999.1939,9.6942,1.3698,-0.5618,1590577163,N
85,1977134,9.7268,1.3998,-0.3398,1.7500,-2.9400,0.2800,999.1954,9.6904,1.4039,-0.5438,1590577163,N
85,1978092,9.8273,1.4309,-0.9835,1.4000,-1.3300,-1.5400,999.1964,9.6800,1.4339,-0.6412,1590577163,N
85,1978221,9.7603,1.4213,-0.5503,-3.4300,4.3400,1.3300,999.1972,9.6919,1.3793,-0.5782,1590577163,N
85,1975971,9.7651,1.3376,-0.2632,1.7500,-2.7300,0.4200,999.1968,9.6916,1.3981,-0.5382,1590577163,N
85,1975228,9.8584,1.4764,-0.8853,1.6800,-1.4700,-1.9600,999.1965,9.6804,1.4411,-0.6199,1590577163,N
85,1975129,9.7436,1.3878,-0.4857,-3.4300,3.7800,1.4700,999.1959,9.6929,1.3826,-0.5534,1590577163,N
85,1974684,9.8441,1.3089,-0.3398,2.1000,-3.5000,0.1400,999.1956,9.6906,1.4032,-0.5412,1590577164,N
85,1975779,9.8441,1.4524,-0.9452,1.9600,-1.2600,-1.9600,999.1953,9.6800,1.4381,-0.6319,1590577164,N
85,1976539,9.7364,1.4285,-0.4403,-2.7300,3.0800,1.4700,999.1950,9.6906,1.3955,-0.5608,1590577164,N
85,1975906,9.7603,1.3519,-0.4020,1.3300,-3.7100,0.0700,999.1953,9.6860,1.4266,-0.5621,1590577164,N
85,1974410,9.8082,1.5434,-1.0002,1.1200,-0.7000,-2.1000,999.1957,9.6732,1.4737,-0.6535,1590577164,N
85,1973805,9.7508,1.3974,-0.5216,-2.4500,3.1500,1.0500,999.1957,9.6850,1.4204,-0.5943,1590577164,N
85,1973482,9.7986,1.3759,-0.5097,2.6600,-2.8700,0.3500,999.1954,9.6828,1.4319,-0.6032,1590577164,N
86,1973936,9.7914,1.5697,-1.0074,0.0700,1.6100,-1.0500,999.1946,9.6755,1.4533,-0.6653,1590577164,N
85,1974175,9.7627,1.4740,-0.3182,-2.5900,3.5700,1.6100,999.1940,9.6886,1.4105,-0.5577,1590577164,N
85,1974498,9.8417,1.2778,-0.5408,3.2900,-3.3600,-0.1400,999.1943,9.6868,1.4118,-0.5858,1590577164,N
85,1972999,9.7866,1.5434,-0.9356,0.3500,1.5400,-0.9800,999.1941,9.6806,1.4312,-0.6392,1590577165,N
86,1971006,9.7795,1.4931,-0.3182,-1.8900,3.0100,1.5400,999.1938,9.6912,1.3987,-0.5427,1590577165,N
85,1970446,9.7843,1.2945,-0.4618,2.1000,-3.7100,0.4900,999.1934,9.6886,1.4101,-0.5594,1590577165,N
85,1970606,9.7866,1.5601,-0.9404,0.3500,1.4700,-0.9100,999.1934,9.6816,1.4335,-0.6188,1590577165,N
86,1970616,9.8034,1.4046,-0.2728,-1.6100,2.5900,1.2600,999.1938,9.6934,1.3916,-0.5209,1590577165,N
86,1971009,9.7890,1.2562,-0.5025,1.9600,-4.1300,0.2800,999.1941,9.6899,1.4034,-0.5545,1590577165,N
86,1971688,9.7627,1.5338,-0.9523,0.1400,1.1200,-1.4000,999.1949,9.6816,1.4320,-0.6213,1590577165,N
86,1969269,9.7771,1.3950,-0.3087,-1.7500,1.7500,1.3300,999.1950,9.6915,1.3988,-0.5377,1590577165,N
86,1967844,9.8082,1.2945,-0.5336,3.5000,-4.2700,-0.2800,999.1947,9.6863,1.4185,-0.5772,1590577165,N
86,1967982,9.8345,1.5482,-0.9212,-0.0700,2.2400,-0.6300,999.1944,9.6827,1.4249,-0.6211,1590577165,N
86,1967542,9.6766,1.4094,-0.1938,-1.6800,2.4500,1.2600,999.1946,9.6940,1.3918,-0.5088,1590577166,N
86,1968089,9.8201,1.2849,-0.5073,2.5900,-3.9200,-0.1400,999.1948,9.6895,1.4094,-0.5447,1590577166,N
86,1969357,9.7843,1.5242,-0.8638,-0.9800,1.7500,-0.2800,999.1952,9.6859,1.4173,-0.5881,1590577166,N
86,1968984,9.7196,1.3424,-0.2632,-1.8200,1.0500,1.4700,999.1952,9.6949,1.3859,-0.5084,1590577166,N
86,1967249,9.8632,1.2945,-0.6078,2.7300,-3.7800,-0.9800,999.1943,9.6885,1.4087,-0.5640,1590577166,N
86,1966746,9.8106,1.5051,-0.8949,-1.1900,2.7300,0.1400,999.1932,9.6879,1.3987,-0.5994,1590577166,N
86,1966273,9.7149,1.3807,-0.2010,-1.0500,0.6300,0.9800,999.1923,9.6947,1.3868,-0.5101,1590577166,N
86,1966510,9.8106,1.1988,-0.5838,3.7800,-4.2000,-1.2600,999.1917,9.6903,1.3955,-0.5671,1590577166,N
86,1967621,9.7723,1.5242,-0.8040,-0.7000,2.2400,-0.1400,999.1912,9.6884,1.3985,-0.5908,1590577166,N
86,1968139,9.7149,1.4333,-0.3087,-1.4000,0.6300,1.3300,999.1909,9.6933,1.3907,-0.5250,1590577166,N
86,1967672,9.8752,1.2682,-0.6652,2.3800,-3.4300,-0.9100,999.1904,9.6884,1.4010,-0.5852,1590577167,N
87,1966491,9.7651,1.5529,-0.7274,-1.6800,3.5700,0.3500,999.1906,9.6903,1.3911,-0.5776,1590577167,N
86,1965439,9.7149,1.3567,-0.2608,-0.9100,0.3500,1.9600,999.1909,9.6976,1.3679,-0.5058,1590577167,N
86,1965401,9.8608,1.2778,-0.7202,3.5000,-3.0800,-1.3300,999.1921,9.6912,1.3838,-0.5789,1590577167,N
87,1966057,9.7651,1.5075,-0.6556,-3.3600,4.2700,1.0500,999.1931,9.6967,1.3569,-0.5502,1590577167,N
87,1966367,9.7173,1.3376,-0.1531,-0.3500,-0.7000,0.9100,999.1945,9.7006,1.3586,-0.4733,1590577167,N
87,1967490,9.9039,1.2108,-0.6915,3.0100,-3.7100,-0.9100,999.1954,9.6953,1.3664,-0.5519,1590577167,N
87,1967269,9.7460,1.3807,-0.5791,-5.4600,4.1300,2.2400,999.1953,9.7051,1.3111,-0.5118,1590577167,N
87,1965389,9.7316,1.3519,-0.2465,-1.1900,-0.8400,2.8700,999.1954,9.7082,1.3072,-0.4606,1590577167,N
87,1965104,9.9159,1.3615,-0.7394,-1.8200,-2.5200,2.6600,999.1953,9.7027,1.3224,-0.5283,1590577167,N
87,1965025,9.8417,1.2658,-0.5647,-2.4500,3.8500,1.5400,999.1948,9.7137,1.2531,-0.4952,1590577168,N
87,1964817,9.7962,1.0696,-0.1101,0.3500,-0.4200,1.7500,999.1948,9.7217,1.2192,-0.4158,1590577168,N
87,1965614,9.8656,1.0959,-0.6556,3.4300,-3.4300,-2.0300,999.1937,9.7152,1.2396,-0.4980,1590577168,N
87,1967109,9.7843,1.3639,-0.6293,-1.8200,3.5000,-0.4200,999.1923,9.7168,1.2303,-0.4905,1590577168,N
87,1966217,9.7627,1.2371,-0.1771,-0.5600,-0.9100,1.1900,999.1915,9.7187,1.2366,-0.4327,1590577168,N
87,1965021,9.8824,1.0289,-0.6389,2.8700,-3.3600,-1.0500,999.1904,9.7162,1.2286,-0.5070,1590577168,N
87,1965138,9.8393,1.4261,-0.6221,-2.3100,4.0600,0.7700,999.1882,9.7186,1.2166,-0.4883,1590577168,N
87,1964771,9.7795,1.1916,-0.1938,-0.2100,-0.7700,0.6300,999.1871,9.7210,1.2188,-0.4336,1590577168,N
87,1965332,9.8680,1.1007,-0.6724,3.5700,-4.4100,-2.1000,999.1864,9.7122,1.2519,-0.5252,1590577168,N
87,1966743,9.7675,1.3902,-0.6939,-1.5400,3.2900,-0.0700,999.1851,9.7128,1.2470,-0.5263,1590577168,N
87,1967485,9.7412,1.2443,-0.1460,-0.3500,-0.3500,1.5400,999.1844,9.7173,1.2422,-0.4491,1590577169,N
87,1967266,9.9015,1.0624,-0.6030,3.3600,-3.9200,-1.6800,999.1842,9.7126,1.2517,-0.5192,1590577169,N
87,1966537,9.7890,1.3950,-0.6867,-1.7500,3.2900,-0.2100,999.1836,9.7130,1.2484,-0.5199,1590577169,N
87,1965793,9.8034,1.2467,-0.2225,-0.6300,3.2900,1.2600,999.1838,9.7237,1.1991,-0.4269,1590577169,N
87,1965953,9.9111,1.1438,-0.6532,3.0100,-3.5000,-0.9800,999.1841,9.7163,1.2280,-0.5051,1590577169,N
87,1966767,9.7890,1.3878,-0.6389,-2.8700,4.7600,0.9100,999.1838,9.7205,1.2036,-0.4837,1590577169,N
87,1967261,9.7531,1.2395,-0.1531,0.3500,-0.7000,0.9800,999.1841,9.7227,1.2088,-0.4210,1590577169,N
87,1968309,9.8656,1.0552,-0.6676,2.8700,-3.4300,-0.9800,999.1838,9.7179,1.2165,-0.5039,1590577169,N
87,1968172,9.7914,1.3950,-0.6269,-2.0300,3.9200,0.4900,999.1833,9.7198,1.2070,-0.4893,1590577169,N
87,1966248,9.7747,1.2658,-0.2034,0.5600,-0.4900,0.7000,999.1833,9.7213,1.2155,-0.4348,1590577169,N
87,1965936,9.8728,1.1677,-0.6963,2.5200,-2.8700,-0.8400,999.1836,9.7145,1.2389,-0.5135,1590577170,N
87,1966284,9.7890,1.3567,-0.5001,-2.3800,3.9900,0.5600,999.1840,9.7198,1.2142,-0.4717,1590577170,N
87,1966113,9.7723,1.1797,-0.1866,0.2100,-1.1900,0.9100,999.1854,9.7219,1.2153,-0.4222,1590577170,N
87,1967136,9.8225,1.1414,-0.7466,2.9400,-2.9400,-1.5400,999.1859,9.7141,1.2414,-0.5157,1590577170,N
87,1968327,9.7866,1.3854,-0.5001,-2.5200,4.1300,0.7700,999.1865,9.7192,1.2182,-0.4719,1590577170,N
87,1967152,9.7914,1.1605,-0.1819,0.0700,-1.7500,0.9800,999.1870,9.7208,1.2226,-0.4259,1590577170,N
87,1965581,9.8249,1.2419,-0.7466,2.5200,-2.7300,-1.5400,999.1877,9.7108,1.2669,-0.5153,1590577170,N
87,1965296,9.8082,1.3352,-0.5360,-3.0800,4.4800,0.8400,999.1879,9.7183,1.2250,-0.4745,1590577170,N
87,1964455,9.7914,1.2514,-0.1890,0.8400,-2.0300,0.3500,999.1885,9.7168,1.2513,-0.4344,1590577170,N
87,1964956,9.8704,1.1988,-0.7011,2.1700,-3.4300,-1.4700,999.1891,9.7081,1.2856,-0.5196,1590577170,N
87,1966062,9.8345,1.2395,-0.5791,-3.0100,3.5700,0.7700,999.1895,9.7165,1.2312,-0.4946,1590577171,N
87,1966502,9.8082,1.2491,-0.2249,0.2100,-1.3300,0.8400,999.1902,9.7170,1.2437,-0.4502,1590577171,N
87,1966315,9.8273,1.1988,-0.7107,2.8000,-3.4300,-1.8900,999.1909,9.7077,1.2820,-0.5357,1590577171,N
87,1964947,9.7508,1.3639,-0.5838,-2.3100,3.4300,0.4200,999.1906,9.7119,1.2598,-0.5114,1590577171,N
87,1963984,9.7866,1.3089,-0.3326,0.0700,-1.4000,1.1900,999.1900,9.7114,1.2739,-0.4857,1590577171,N
87,1964045,9.8943,1.1940,-0.7178,3.2900,-3.5700,-1.9600,999.1896,9.7033,1.3021,-0.5670,1590577171,N
87,1964586,9.7627,1.4596,-0.6126,-3.3600,3.7800,0.8400,999.1890,9.7066,1.2895,-0.5373,1590577171,N
87,1964915,9.7508,1.3184,-0.2800,0.8400,-2.2400,0.8400,999.1879,9.7052,1.3134,-0.5044,1590577171,N
87,1966162,9.8560,1.1677,-0.8040,1.4700,-2.5200,-1.1200,999.1871,9.7008,1.3115,-0.5872,1590577171,N
87,1965490,9.7484,1.3807,-0.5886,-2.9400,5.1100,0.7700,999.1867,9.7093,1.2692,-0.5375,1590577171,N
87,1963326,9.6933,1.2012,-0.1747,0.5600,-0.7000,0.9100,999.1862,9.7139,1.2613,-0.4677,1590577172,N
87,1962884,9.9039,1.0768,-0.6652,3.2200,-3.6400,-1.4700,999.1854,9.7097,1.2639,-0.5435,1590577172,N
87,1963100,9.8010,1.3543,-0.7370,-1.2600,3.2900,0.0700,999.1852,9.7113,1.2486,-0.5489,1590577172,N
87,1963025,9.7795,1.2251,-0.1579,-0.2800,-0.1400,0.8400,999.1848,9.7163,1.2427,-0.4679,1590577172,N
87,1963938,9.8752,1.1079,-0.6652,2.9400,-3.5000,-1.0500,999.1841,9.7113,1.2523,-0.5412,1590577172,N
87,1964901,9.7986,1.3735,-0.6078,-2.0300,4.0600,0.4200,999.1834,9.7155,1.2308,-0.5145,1590577172,N
87,1962605,9.7555,1.2778,-0.2177,-0.0700,-0.4200,1.0500,999.1827,9.7178,1.2357,-0.4562,1590577172,N
87,1961105,9.8704,1.1366,-0.6963,2.2400,-3.2900,-0.9800,999.1821,9.7116,1.2525,-0.5350,1590577172,N
87,1961091,9.8489,1.3759,-0.5743,-2.6600,4.2700,0.5600,999.1814,9.7168,1.2266,-0.4999,1590577172,N
86,1960487,9.7531,1.2275,-0.2058,-0.2100,-0.9800,0.9100,999.1805,9.7187,1.2321,-0.4468,1590577172,N
87,1961279,9.9039,1.2012,-0.7561,3.2900,-3.7100,-1.4000,999.1799,9.7089,1.2703,-0.5427,1590577173,N
87,1962523,9.8584,1.3711,-0.7657,-3.2900,4.9700,0.0700,999.1793,9.7129,1.2417,-0.5363,1590577173,N
87,1961515,9.8297,1.1533,-0.1220,-2.7300,1.8200,1.4700,999.1784,9.7236,1.1993,-0.4288,1590577173,N
87,1959126,9.8130,1.2419,-0.4714,2.0300,-2.5200,-0.7700,999.1775,9.7170,1.2395,-0.4616,1590577173,N
87,1958338,9.8225,1.3304,-0.6102,0.2800,1.2600,0.5600,999.1764,9.7168,1.2355,-0.4772,1590577173,N
87,1957810,9.8106,1.2514,-0.3422,-1.2600,1.7500,-0.1400,999.1760,9.7210,1.2190,-0.4330,1590577173,N
87,1957581,9.7173,1.2945,-0.3948,-0.8400,1.4700,0.2100,999.1760,9.7225,1.2140,-0.4113,1590577173,N
87,1958102,9.8369,1.2586,-0.2752,-0.2800,-0.8400,0.0700,999.1758,9.7213,1.2303,-0.3904,1590577173,N
87,1958713,9.8776,1.2993,-0.4762,1.3300,-1.6100,-0.4900,999.1757,9.7157,1.2639,-0.4219,1590577173,N
87,1956738,9.8178,1.2778,-0.4810,-0.4900,0.4900,-0.7000,999.1745,9.7153,1.2649,-0.4290,1590577173,N
87,1955023,9.9350,1.4166,-0.4259,-0.9100,0.9800,-0.1400,999.1738,9.7141,1.2777,-0.4174,1590577174,N
87,1954169,9.7747,1.3041,-0.4331,0.2100,1.2600,0.3500,999.1737,9.7167,1.2609,-0.4083,1590577174,N
87,1953405,9.8058,1.0935,-0.3135,3.4300,0.2100,-2.5900,999.1739,9.7199,1.2413,-0.3925,1590577174,N
87,1953599,9.8345,1.3017,-0.3852,-0.7700,0.1400,-0.5600,999.1740,9.7183,1.2541,-0.3891,1590577174,N
87,1954353,9.7005,1.4501,-0.3230,1.6100,-1.8900,-1.9600,999.1744,9.7078,1.3312,-0.3972,1590577174,N
87,1953066,9.8369,1.5003,-0.5336,4.9700,-4.1300,-0.7700,999.1747,9.6928,1.4156,-0.4640,1590577174,N
87,1951874,9.7890,1.6726,-0.7131,-0.9800,-1.1900,1.6800,999.1745,9.6823,1.4683,-0.5174,1590577174,N
87,1950996,9.8656,1.2084,-0.5288,-6.3700,6.5100,3.6400,999.1746,9.7087,1.3068,-0.4506,1590577174,N
87,1949664,9.9326,1.3232,-0.0790,-8.1900,14.2800,-2.3100,999.1740,9.7399,1.1158,-0.2431,1590577174,N
87,1950632,9.7460,1.1629,-0.0790,-5.3200,3.2200,-4.3400,999.1732,9.7448,1.0847,-0.1796,1590577174,N
87,1952340,9.7986,1.1174,0.0287,-2.5200,7.5600,-8.5400,999.1727,9.3657,2.8977,-0.2389,1590577175,N
87,1955496,9.6359,1.3950,0.7490,11.9000,1.8900,-19.3200,999.1721,8.2296,5.3328,-0.0752,1590577175,N
87,1955293,9.5809,2.5579,-0.6341,-12.5300,-2.6600,-0.2100,999.1717,9.7199,1.3002,-0.0569,1590577175,N
87,1959916,9.5689,0.9452,-0.1029,-82.4600,16.7300,6.5100,999.1718,9.3735,2.8788,0.1400,1590577175,N
87,1967516,9.8225,0.5216,1.4381,-80.2200,12.8100,-0.4200,999.1711,9.6799,1.4597,0.5826,1590577175,N
87,1971791,9.5450,1.7013,1.4931,-56.5600,-2.4500,3.6400,999.1696,9.6783,1.3823,0.7678,1590577175,N
87,1973729,9.0281,3.7328,2.2205,-37.3100,-36.9600,30.3800,999.1686,9.6982,1.2774,0.6949,1590577175,N
87,1973956,10.1862,0.6030,0.6604,-15.2600,-24.7100,25.5500,999.1682,9.7703,0.7413,0.4024,1590577175,N
87,1969596,9.0401,-0.3517,-1.2132,-15.4000,-33.6700,25.3400,999.1686,9.6714,1.6140,0.1727,1590577175,N
87,1965357,9.8345,-0.5264,-0.5168,9.3100,-24.0800,4.9700,999.1690,9.5603,2.1842,0.0166,1590577175,N
87,1963871,10.1312,-0.9739,-1.1342,26.4600,-22.5400,-5.1800,999.1691,8.8224,4.2784,-0.1773,1590577176,N
87,1962916,11.5884,-0.8590,-1.0720,56.0700,-3.2200,-26.3900,999.1688,8.9299,4.0040,-0.6290,1590577176,N
87,1962341,9.8345,-1.4118,-2.7709,95.6200,38.8500,-52.5000,999.1696,9.7157,1.0968,-0.7563,1590577176,N
87,1962314,8.5878,0.1484,-1.9836,88.9000,80.7100,-41.1600,999.1708,9.4259,2.5064,-1.0203,1590577176,N
87,1960881,6.3697,3.8548,0.4738,81.9700,39.0600,-48.7900,999.1713,8.1571,5.0634,-1.9984,1590577176,N
87,1957814,9.7579,4.1946,0.4164,27.1600,7.9100,-32.9000,999.1723,7.3313,6.2216,-1.9273,1590577176,N
88,1957462,9.3512,3.6873,1.0217,25.9000,-5.1800,-23.8000,999.1733,6.8406,6.8489,-1.5716,1590577176,N
88,1957320,8.7338,4.2712,0.3565,1.1900,-14.6300,-16.3800,999.1740,6.5311,7.2011,-1.2878,1590577176,N
88,1957673,9.6239,6.1472,1.2467,-10.7100,5.7400,-1.7500,999.1740,6.0773,7.6340,-0.9794,1590577176,N
88,1960491,9.1669,4.7809,0.0742,-50.6100,-16.5200,34.3000,999.1734,6.5542,7.2769,-0.5090,1590577176,N
88,1962964,9.2507,3.3428,0.9954,10.1500,-16.2400,55.0200,999.1723,7.1991,6.6555,-0.2177,1590577177,N
88,1963953,9.4158,1.9071,-1.0169,-69.3700,-5.7400,83.7900,999.1703,9.6938,1.4802,-0.0967,1590577177,N
88,1965516,9.9278,-0.0191,-0.0861,-44.5200,10.7800,60.6900,999.1688,9.7311,1.2091,-0.1225,1590577177,N
88,1968079,9.8536,-1.0528,0.6508,-41.3000,18.5500,37.1700,999.1675,8.9365,4.0376,0.0826,1590577177,N
88,1970168,9.8034,-1.2012,1.2945,-32.0600,15.5400,18.2700,999.1668,9.7718,0.6710,0.4813,1590577177,N
88,1972584,9.8680,-1.3328,1.0169,-22.1900,14.3500,13.1600,999.1661,9.7930,-0.0423,0.5149,1590577177,N
88,1974068,9.8489,-1.5888,1.6510,-23.8700,18.3400,9.5200,999.1653,9.7853,-0.3776,0.5254,1590577177,N
88,1973900,9.6096,-1.3902,1.9190,-33.6700,6.8600,1.2600,999.1642,9.7849,-0.5803,0.2986,1590577177,N
88,1973250,9.7053,-1.2969,1.7444,-59.3600,6.2300,3.0800,999.1635,9.7546,-0.7515,-0.6728,1590577177,N
88,1973055,9.8106,-2.0506,1.3089,-24.7100,9.1700,1.4000,999.1630,8.3688,-0.7444,5.0575,1590577177,N
88,1972747,9.6622,-1.5601,1.7013,-17.5000,7.1400,-3.0800,999.1626,9.1927,-1.0259,3.2576,1590577178,N
88,1972544,9.6215,-2.0913,1.6391,-8.3300,3.8500,-5.2500,999.1620,9.3964,-1.1975,2.5386,1590577178,N
88,1972798,9.7771,-1.7109,1.8401,-2.7300,2.3100,-8.4700,999.1617,9.4672,-1.2198,2.2481,1590577178,N
88,1972661,9.6144,-1.1509,1.8138,8.8900,-0.4900,-11.5500,999.1610,9.5234,-1.0954,2.0679,1590577178,N
89,1970983,9.7412,-1.3137,1.4692,10.3600,0.4900,-4.6200,999.1610,9.5566,-1.0877,1.9129,1590577178,N
89,1970158,9.5809,-1.6295,1.9119,4.4800,3.1500,-4.3400,999.1604,9.5485,-1.1514,1.9161,1590577178,N
89,1969463,9.7029,-0.9619,1.7970,8.7500,1.6100,-5.1800,999.1603,9.5656,-1.0597,1.8835,1590577178,N
89,1969102,9.7292,-0.6963,2.2493,7.5600,0.9800,-2.2400,999.1600,9.5623,-0.9602,1.9522,1590577178,N
89,1969295,9.6838,-0.7729,2.0889,4.0600,0.2800,-3.0100,999.1598,9.5677,-0.8905,1.9585,1590577178,N
89,1969610,9.6287,-0.7537,2.0506,-0.3500,-0.2100,0.2100,999.1596,9.5672,-0.8640,1.9732,1590577178,N
89,1967736,9.6814,-0.8447,2.1751,-2.0300,-0.2800,0.0700,999.1582,9.5621,-0.8603,1.9993,1590577179,N
89,1966758,9.6622,-0.8207,2.0818,-2.0300,-0.7700,0.2800,999.1574,9.5621,-0.8540,2.0018,1590577179,N
89,1966529,9.7196,-0.9858,1.9358,-0.9800,-0.4200,0.4200,999.1568,9.5641,-0.8815,1.9804,1590577179,N
89,1966410,9.7843,-0.9571,1.9286,1.2600,0.8400,-0.2100,999.1566,9.5653,-0.8911,1.9700,1590577179,N
89,1966652,9.6909,-0.8638,2.0435,1.0500,0.2100,-0.2100,999.1569,9.5639,-0.8807,1.9814,1590577179,N
89,1967333,9.6694,-0.8997,2.0794,-0.2100,0.3500,-0.0700,999.1569,9.5604,-0.8826,1.9976,1590577179,N
89,1966638,9.6885,-0.9739,2.0315,0.0700,-0.1400,0.7700,999.1571,9.5568,-0.9044,2.0050,1590577179,N
90,1965762,9.6861,-1.0026,2.0937,-0.0700,-0.6300,-0.8400,999.1576,9.5565,-0.9124,2.0030,1590577179,N
89,1965855,9.6957,-0.5815,2.0028,1.4000,-0.0700,-2.6600,999.1579,9.5703,-0.8188,1.9773,1590577179,N
89,1965744,9.7053,-1.0552,2.0722,-0.4900,0.6300,-0.6300,999.1579,9.5643,-0.8582,1.9894,1590577179,N
89,1966222,9.6838,-0.8542,2.0554,3.2900,2.8000,-0.2800,999.1585,9.5568,-0.8540,2.0271,1590577180,N
90,1967152,9.5426,-0.8088,3.1178,9.7300,-2.3800,-5.1800,999.1592,9.5334,-0.7887,2.1593,1590577180,N
90,1971808,9.4349,-0.5886,2.7805,54.4600,-36.9600,-11.7600,999.1592,9.5927,-0.5428,1.9635,1590577180,N
90,1977089,9.5163,-1.2658,-0.0885,40.8800,-75.6700,1.1200,999.1583,9.7551,-0.5575,0.8355,1590577180,N
90,1977256,9.8441,-2.1200,-0.5432,56.2800,-45.7800,-41.3000,999.1580,9.7161,-1.1295,0.7016,1590577180,N
90,1977975,10.1288,1.7683,-2.4574,13.3700,-11.2700,-47.3200,999.1571,9.7151,0.7328,-1.1185,1590577180,N
90,1980124,9.7579,1.8377,-0.9787,-20.6500,21.5600,-31.9900,999.1571,9.0542,2.2541,-3.0184,1590577180,N
90,1983152,9.4516,3.0724,-0.0263,-4.4800,24.3600,3.1500,999.1570,6.1148,2.5914,-7.2155,1590577180,N
90,1984934,10.0881,1.3256,-0.3757,-23.0300,26.4600,30.7300,999.1575,9.1934,0.6377,3.3533,1590577180,N
90,1983305,9.8321,0.5336,1.5099,-36.2600,5.9500,34.4400,999.1579,9.4775,0.3450,2.4956,1590577180,N
90,1982613,10.1073,-0.6843,0.7490,0.7700,-1.1900,1.8200,999.1580,9.7810,0.1656,-0.6890,1590577181,N
90,1982254,9.9517,0.7346,0.3805,27.0200,-3.7800,-11.2700,999.1583,9.7142,0.3640,1.2933,1590577181,N
90,1982243,9.8273,1.0552,0.3805,-3.7100,0.7700,0.2800,999.1584,9.7587,0.4645,0.8495,1590577181,N
90,1982185,9.7866,0.7011,0.7083,-5.3900,0.0700,2.6600,999.1581,9.7654,0.4732,0.7633,1590577181,N
90,1982000,9.9422,0.4810,0.4068,-2.8000,-0.6300,1.4700,999.1583,9.7752,0.4557,0.6387,1590577181,N
90,1981648,9.9015,0.5264,0.4379,-1.8900,1.8900,0.4900,999.1591,9.7774,0.4660,0.5972,1590577181,N
90,1981876,9.8800,0.4762,0.8136,2.5200,-3.4300,0.9100,999.1599,9.7779,0.4507,0.5992,1590577181,N
90,1982292,10.0929,0.0479,-0.0120,-5.1800,-4.4800,0.6300,999.1606,9.7923,0.3866,0.3638,1590577181,N
90,1982910,9.8297,0.7131,0.3254,-2.4500,-0.7000,-3.1500,999.1614,9.7886,0.4666,0.3678,1590577181,N
90,1983863,10.0044,0.2656,0.3517,6.5800,1.3300,-0.9100,999.1614,9.7893,0.4412,0.3802,1590577181,N
91,1983927,9.9063,0.6963,0.5049,6.5800,4.6200,2.5200,999.1619,9.7847,0.4907,0.4348,1590577182,N
90,1984318,9.6598,0.5384,0.3063,8.1200,3.6400,8.8200,999.1622,9.7879,0.4471,0.4083,1590577182,N
91,1985227,9.8225,0.3374,0.9452,3.4300,0.9800,-4.4100,999.1614,9.7810,0.4815,0.5205,1590577182,N
91,1985686,9.8560,0.5025,0.8136,3.9200,-6.0900,-2.1700,999.1604,9.7807,0.4829,0.5243,1590577182,N
91,1987055,9.9805,0.6676,0.1842,15.0500,-10.1500,-2.1000,999.1595,9.7876,0.4908,0.3644,1590577182,N
91,1988068,9.9852,0.6461,0.1172,3.7800,-1.3300,1.8900,999.1588,9.7901,0.4884,0.2937,1590577182,N
90,1988111,9.8513,0.5312,0.3661,2.0300,1.5400,0.8400,999.1581,9.7887,0.5004,0.3185,1590577182,N
91,1988609,9.9805,0.0431,0.4187,2.0300,-0.2800,0.5600,999.1573,9.7927,0.3938,0.3438,1590577182,N
91,1989512,9.9565,0.4857,0.2991,2.7300,0.0700,-1.7500,999.1568,9.7915,0.4265,0.3403,1590577182,N
91,1990634,9.8848,0.3613,0.4666,-0.9800,1.1200,1.6100,999.1561,9.7914,0.4048,0.3686,1590577182,N
91,1991646,9.8393,0.3350,0.3876,1.6100,-1.9600,-0.5600,999.1555,9.7925,0.3867,0.3565,1590577183,N
91,1991684,9.9709,0.4786,0.2010,1.6100,1.0500,-0.4200,999.1559,9.7923,0.4130,0.3340,1590577183,N
91,1991582,9.8728,0.5001,0.5264,-1.1200,3.6400,2.5900,999.1562,9.7895,0.4265,0.3934,1590577183,N
92,1991796,9.8632,0.2297,0.6006,1.3300,-1.8900,1.1900,999.1564,9.7913,0.3685,0.4066,1590577183,N
91,1992332,9.9254,0.4929,0.2512,1.7500,-0.9800,-2.1700,999.1566,9.7909,0.4088,0.3753,1590577183,N
92,1992683,9.8608,0.4738,0.4522,-1.6800,2.5200,1.5400,999.1575,9.7892,0.4188,0.4069,1590577183,N
91,1992504,9.8608,0.3565,0.5982,1.1200,-2.9400,0.1400,999.1581,9.7900,0.3935,0.4132,1590577183,N
91,1991384,9.9589,0.3326,0.1268,1.5400,-3.2200,-3.0100,999.1583,9.7929,0.3996,0.3312,1590577183,N
91,1991254,9.8680,0.5312,0.3254,-0.7000,3.2200,0.6300,999.1587,9.7905,0.4352,0.3575,1590577183,N
91,1990785,9.8560,0.3206,0.6078,-1.1200,-0.1400,1.8900,999.1595,9.7907,0.3968,0.3939,1590577183,N
91,1991173,9.9230,0.3661,0.1531,1.5400,-2.2400,-1.3300,999.1600,9.7932,0.3961,0.3260,1590577184,N
91,1991236,9.9063,0.4403,0.3613,-1.5400,3.6400,1.1900,999.1603,9.7913,0.4125,0.3614,1590577184,N
91,1989219,9.8345,0.3206,0.6987,-0.7700,-2.1000,0.8400,999.1607,9.7912,0.3817,0.3968,1590577184,N
91,1988260,9.9613,0.3661,0.1819,1.6100,-3.2200,-2.7300,999.1609,9.7932,0.3909,0.3317,1590577184,N
91,1988062,9.9182,0.5456,0.2847,-0.8400,3.0100,0.2800,999.1616,9.7909,0.4326,0.3495,1590577184,N
91,1987221,9.8824,0.4953,0.5384,0.5600,-0.8400,0.7000,999.1623,9.7899,0.4354,0.3737,1590577184,N
91,1987247,9.9230,0.2943,0.2273,1.9600,-2.8700,-1.4700,999.1636,9.7930,0.4056,0.3220,1590577184,N
91,1985211,9.8967,0.5049,0.2632,-1.4700,3.0800,0.7700,999.1642,9.7913,0.4339,0.3358,1590577184,N
91,1983104,9.8919,0.3063,0.6173,-0.9100,0.7700,1.4700,999.1642,9.7908,0.4019,0.3872,1590577184,N
91,1982167,9.9565,0.3206,0.2345,1.6800,-3.0100,-1.6100,999.1644,9.7934,0.3861,0.3334,1590577184,N
92,1981847,9.8967,0.4929,0.1795,-0.7700,2.1000,-0.4200,999.1635,9.7922,0.4221,0.3231,1590577185,N
92,1981333,9.8991,0.4283,0.6102,-0.8400,0.6300,2.1000,999.1625,9.7910,0.4111,0.3722,1590577185,N
92,1980287,9.8871,0.1172,0.2991,0.8400,-3.8500,-0.7700,999.1612,9.7954,0.3325,0.3324,1590577185,N
92,1978224,9.8895,0.5838,0.1101,-0.3500,1.6100,-0.8400,999.1604,9.7940,0.3909,0.3094,1590577185,N
92,1976680,9.8632,0.4140,0.5408,-2.2400,2.6600,2.1000,999.1599,9.7919,0.3921,0.3686,1590577185,N
92,1975597,9.9230,0.2680,0.4044,2.3100,-3.6400,-0.2100,999.1589,9.7944,0.3508,0.3423,1590577185,N
93,1975292,9.9350,0.4810,0.0024,0.7700,0.3500,-1.5400,999.1588,9.7948,0.3923,0.2810,1590577185,N
92,1975038,9.8919,0.4522,0.5097,-1.4000,2.8700,1.0500,999.1588,9.7918,0.4133,0.3459,1590577185,N
93,1975045,9.9015,0.3805,0.4259,1.3300,-3.6400,0.2100,999.1591,9.7937,0.3850,0.3259,1590577185,N
93,1975705,9.9733,0.4738,0.0526,0.7000,0.1400,-1.6100,999.1594,9.7938,0.4186,0.2754,1590577185,N
93,1975725,9.8560,0.4977,0.4953,-1.4000,3.6400,1.8200,999.1603,9.7906,0.4428,0.3439,1590577186,N
93,1973021,9.8824,0.3302,0.5097,0.3500,-2.8000,0.2100,999.1611,9.7922,0.4024,0.3475,1590577186,N
93,1971293,9.9924,0.4786,0.0622,1.5400,-1.5400,-2.2400,999.1625,9.7932,0.4304,0.2809,1590577186,N
93,1970438,9.9015,0.4092,0.3470,-1.6800,4.2000,1.5400,999.1638,9.7914,0.4380,0.3272,1590577186,N
93,1969518,9.8776,0.2752,0.6269,-1.6800,-1.8200,1.1900,999.1639,9.7924,0.3873,0.3586,1590577186,N
94,1969695,10.0187,0.4546,0.0981,2.8000,-1.5400,-2.3100,999.1639,9.7933,0.4164,0.2976,1590577186,N
94,1969891,9.8680,0.3924,0.4427,-1.6800,4.0600,1.1900,999.1642,9.7909,0.4243,0.3580,1590577186,N
94,1970235,9.7986,0.4020,0.6197,0.9800,-1.6800,1.1900,999.1646,9.7908,0.4039,0.3841,1590577186,N
94,1971203,9.9278,0.3182,0.2967,1.6100,-3.9900,-1.4700,999.1644,9.7936,0.3795,0.3351,1590577186,N
94,1971710,9.8943,0.5838,0.2345,-1.7500,2.6600,-0.2800,999.1652,9.7911,0.4325,0.3427,1590577186,N
94,1969103,9.8919,0.2800,0.6173,-0.3500,0.6300,1.5400,999.1660,9.7909,0.3942,0.3912,1590577187,N
94,1967859,9.9039,0.2201,0.4164,1.1200,-2.3800,0.5600,999.1663,9.7937,0.3412,0.3718,1590577187,N
94,1967585,9.9494,0.5408,0.1723,-0.5600,1.4000,-0.8400,999.1667,9.7926,0.3923,0.3499,1590577187,N
93,1967215,9.9087,0.4211,0.5910,-1.6100,2.1000,1.5400,999.1661,9.7903,0.3953,0.4062,1590577187,N
94,1967237,9.9254,0.2393,0.4403,1.0500,-3.5700,-0.0700,999.1659,9.7931,0.3470,0.3799,1590577187,N
94,1968096,9.9589,0.4977,0.0790,1.3300,0.0700,-1.7500,999.1661,9.7933,0.3935,0.3255,1590577187,N
93,1968580,9.8704,0.4666,0.5049,-2.2400,3.5700,1.5400,999.1660,9.7904,0.4125,0.3862,1590577187,N
93,1968935,9.8728,0.4020,0.5456,1.1200,-2.5900,0.4200,999.1658,9.7910,0.3951,0.3890,1590577187,N
93,1968394,9.9757,0.3565,0.1436,1.0500,-1.8900,-2.1700,999.1661,9.7930,0.4021,0.3258,1590577187,N
93,1966521,9.8967,0.5264,0.3829,-2.5200,4.0600,1.1200,999.1662,9.7899,0.4367,0.3705,1590577187,N
93,1965275,9.8800,0.3781,0.5815,-0.0700,-0.7000,1.2600,999.1660,9.7900,0.4110,0.3966,1590577188,N
93,1964884,9.9326,0.3230,0.2489,2.1700,-2.6600,-1.5400,999.1656,9.7925,0.3952,0.3468,1590577188,N
93,1965109,9.8704,0.4403,0.3206,-1.3300,3.4300,0.7000,999.1658,9.7909,0.4148,0.3701,1590577188,N
93,1965065,9.8800,0.2824,0.7226,-0.4200,-0.2800,1.2600,999.1661,9.7902,0.3810,0.4217,1590577188,N
93,1965838,9.9805,0.1866,0.2489,1.6800,-3.5700,-1.3300,999.1659,9.7942,0.3363,0.3617,1590577188,N
93,1966935,9.9135,0.5168,0.2824,-2.3800,2.8000,-0.2100,999.1667,9.7920,0.3832,0.3743,1590577188,N
93,1967474,9.8656,0.3709,0.6556,-1.4700,1.4000,1.4700,999.1669,9.7900,0.3762,0.4304,1590577188,N
93,1966402,9.9541,0.2584,0.4259,3.0100,-3.9200,-1.0500,999.1668,9.7925,0.3453,0.3974,1590577188,N
93,1964906,9.9446,0.5910,0.1196,-0.6300,1.3300,-0.6300,999.1667,9.7919,0.4011,0.3591,1590577188,N
93,1963642,9.8967,0.3422,0.5719,-1.4000,3.2900,1.5400,999.1661,9.7898,0.3915,0.4211,1590577188,N
93,1962789,9.9302,0.2201,0.5408,1.9600,-4.0600,-0.3500,999.1662,9.7922,0.3437,0.4062,1590577189,N
93,1962874,9.9350,0.4714,0.0885,0.7700,-1.6100,-2.3800,999.1658,9.7934,0.3848,0.3344,1590577189,N
93,1963227,9.8728,0.4427,0.4642,-2.2400,3.7100,1.7500,999.1646,9.7910,0.3978,0.3862,1590577189,N
93,1963380,9.9087,0.2393,0.5719,1.4000,-3.0800,0.4900,999.1633,9.7927,0.3497,0.3881,1590577189,N
93,1964341,10.0068,0.3494,0.1364,2.1700,-2.2400,-2.0300,999.1619,9.7948,0.3620,0.3196,1590577189,N
92,1965418,9.7843,0.3541,0.4618,-6.9300,4.8300,2.9400,999.1608,9.7928,0.3551,0.3801,1590577189,N
93,1964039,9.8680,0.2225,0.6628,1.4700,-3.5000,-0.7000,999.1606,9.7931,0.3256,0.3984,1590577189,N
93,1962292,9.9733,0.3565,0.0646,3.3600,-3.5000,-2.2400,999.1607,9.7960,0.3438,0.3011,1590577189,N
93,1961656,9.9422,0.5384,0.2010,-1.8900,5.0400,1.4000,999.1597,9.7934,0.3927,0.3241,1590577189,N
92,1960553,9.9087,0.2895,0.7155,-0.4900,1.1200,1.5400,999.1597,9.7918,0.3706,0.3932,1590577189,N
92,1960170,9.9805,0.2560,0.3852,1.8900,-4.0600,-0.8400,999.1596,9.7944,0.3348,0.3568,1590577190,N
92,1960970,9.9063,0.4522,0.1364,0.4900,0.7700,-1.1200,999.1595,9.7942,0.3733,0.3233,1590577190,N
92,1961246,9.8632,0.3829,0.5815,-1.4000,2.5200,1.6100,999.1594,9.7919,0.3753,0.3861,1590577190,N
92,1961739,9.9111,0.3087,0.4379,1.9600,-3.2900,-0.1400,999.1591,9.7937,0.3478,0.3648,1590577190,N
92,1960695,9.9063,0.4905,0.1005,0.7700,0.9800,-1.0500,999.1592,9.7934,0.3917,0.3245,1590577190,N
92,1958178,9.8704,0.3350,0.6150,-1.2600,3.2200,1.6800,999.1589,9.7910,0.3844,0.3984,1590577190,N
92,1956517,9.8752,0.3015,0.4834,1.6800,-2.7300,-0.0700,999.1584,9.7925,0.3557,0.3879,1590577190,N
92,1955971,10.0020,0.4403,0.2201,0.9800,-0.1400,-1.6800,999.1581,9.7924,0.3878,0.3585,1590577190,N
91,1955685,9.8800,0.4235,0.5432,-1.6100,3.0100,1.1200,999.1583,9.7897,0.3991,0.4153,1590577190,N
91,1955453,9.8919,0.4259,0.5384,1.8200,-2.7300,-0.3500,999.1593,9.7899,0.3959,0.4134,1590577190,N
91,1956368,9.9685,0.3182,0.1699,1.4700,-1.6100,-1.6800,999.1600,9.7925,0.3927,0.3514,1590577191,N
91,1957256,9.8919,0.4905,0.3374,-1.4700,4.1300,0.8400,999.1604,9.7900,0.4241,0.3833,1590577191,N
91,1955849,9.8441,0.2871,0.6939,0.6300,-0.8400,0.7000,999.1605,9.7896,0.3910,0.4258,1590577191,N
91,1953025,9.9039,0.2967,0.1723,1.7500,-3.2200,-1.5400,999.1597,9.7933,0.3764,0.3475,1590577191,N
91,1951328,9.8465,0.5192,0.2776,-0.5600,3.4300,0.7000,999.1593,9.7911,0.4150,0.3632,1590577191,N
91,1950046,9.8369,0.2393,0.7370,0.0700,-0.2100,0.9800,999.1582,9.7904,0.3769,0.4198,1590577191,N
90,1949630,9.8632,0.2704,0.2800,2.3800,-4.2700,-0.9800,999.1582,9.7941,0.3462,0.3564,1590577191,N
90,1950133,9.8848,0.5049,0.2082,-1.0500,2.0300,-0.9100,999.1587,9.7925,0.3940,0.3500,1590577191,N
90,1950655,9.8871,0.3685,0.6556,-1.1900,1.5400,1.6800,999.1591,9.7905,0.3845,0.4108,1590577191,N
90,1951478,9.9159,0.2776,0.4451,1.4700,-3.5700,0.4200,999.1590,9.7932,0.3429,0.3814,1590577191,N
89,1950828,9.9661,0.4020,0.0574,0.1400,0.9100,-1.1200,999.1596,9.7941,0.3753,0.3241,1590577192,N
89,1948063,9.8130,0.4355,0.5791,-1.6100,3.2900,1.1200,999.1599,9.7906,0.3961,0.3966,1590577192,N
89,1946311,9.8848,0.3613,0.5288,1.9600,-3.1500,0.0700,999.1598,9.7917,0.3745,0.3899,1590577192,N
89,1945972,9.9541,0.4690,0.1268,0.9100,0.0700,-1.6800,999.1598,9.7920,0.4118,0.3422,1590577192,N
88,1945775,9.8800,0.5025,0.5336,-1.3300,3.7800,1.2600,999.1591,9.7884,0.4387,0.4075,1590577192,N
88,1946011,9.8967,0.2991,0.6485,0.9800,-3.0800,0.4200,999.1590,9.7898,0.3942,0.4185,1590577192,N
88,1947246,9.9589,0.3278,0.1675,1.4000,-1.6800,-2.0300,999.1589,9.7921,0.3967,0.3562,1590577192,N
88,1948018,9.9230,0.4857,0.4905,-2.1000,4.2000,0.9800,999.1587,9.7886,0.4248,0.4159,1590577192,N
87,1944635,9.8752,0.2919,0.6915,0.6300,-1.6800,0.7000,999.1586,9.7889,0.3874,0.4440,1590577192,N
87,1942473,9.9733,0.3302,0.2369,1.6100,-3.1500,-1.8200,999.1585,9.7919,0.3813,0.3786,1590577192,N
87,1942108,9.8895,0.4331,0.3087,-1.3300,3.2900,0.7000,999.1583,9.7907,0.4000,0.3913,1590577193,N
87,1941394,9.8441,0.3111,0.6939,0.4200,-0.5600,0.5600,999.1580,9.7896,0.3790,0.4357,1590577193,N
86,1941875,9.9206,0.2130,0.3637,2.0300,-3.8500,-1.2600,999.1577,9.7929,0.3398,0.3934,1590577193,N
86,1943222,9.9111,0.5145,0.1675,-1.5400,3.2200,0.0700,999.1573,9.7918,0.3863,0.3772,1590577193,N
86,1943947,9.8680,0.3350,0.7609,-0.7000,1.5400,2.1000,999.1568,9.7895,0.3697,0.4469,1590577193,N
86,1943727,9.9517,0.2369,0.4259,2.3800,-4.8300,-0.5600,999.1563,9.7930,0.3278,0.4002,1590577193,N
85,1941029,9.8967,0.5097,0.1388,-1.1900,1.7500,-0.5600,999.1556,9.7926,0.3760,0.3667,1590577193,N
85,1938848,9.8225,0.3446,0.7202,-1.1900,1.7500,1.4000,999.1542,9.7899,0.3699,0.4381,1590577193,N
85,1938184,9.9398,0.2560,0.4235,2.5900,-5.1800,-0.8400,999.1528,9.7932,0.3334,0.3908,1590577193,N
85,1938650,9.8776,0.5671,0.0383,0.2800,1.1200,-1.2600,999.1519,9.7930,0.3928,0.3374,1590577193,N
84,1939342,9.8632,0.3589,0.6556,-2.0300,3.0100,1.5400,999.1509,9.7901,0.3904,0.4156,1590577194,N
84,1939989,9.9111,0.1986,0.4690,2.2400,-4.6200,-0.1400,999.1504,9.7935,0.3328,0.3837,1590577194,N
84,1941620,9.9230,0.5503,-0.0120,0.1400,0.8400,-0.8400,999.1500,9.7940,0.3841,0.3167,1590577194,N
84,1940551,9.8752,0.3685,0.5838,-1.7500,3.0100,1.2600,999.1498,9.7913,0.3873,0.3877,1590577194,N
83,1937895,9.9182,0.3781,0.5312,1.5400,-3.0800,0.1400,999.1486,9.7921,0.3709,0.3838,1590577194,N
84,1937274,9.9422,0.4570,0.0790,0.8400,0.6300,-1.4000,999.1475,9.7926,0.4078,0.3303,1590577194,N
83,1936780,9.8297,0.4307,0.5503,-1.4700,3.7800,1.2600,999.1469,9.7893,0.4224,0.4008,1590577194,N
83,1936793,9.8919,0.3422,0.6389,1.3300,-3.4300,0.2100,999.1472,9.7903,0.3907,0.4091,1590577194,N
82,1937960,9.9302,0.4140,0.0694,1.8900,-1.4700,-1.8900,999.1481,9.7924,0.4131,0.3287,1590577194,N
83,1939521,9.8704,0.4140,0.4283,-1.6800,4.5500,1.6100,999.1490,9.7900,0.4226,0.3831,1590577194,N
82,1939282,9.8752,0.2704,0.7202,0.7700,-1.5400,0.9800,999.1494,9.7902,0.3807,0.4205,1590577195,N
83,1936529,9.9589,0.2967,0.2297,2.1700,-3.0100,-1.7500,999.1508,9.7931,0.3683,0.3598,1590577195,N
81,1935222,9.8895,0.4020,0.3829,-1.6800,4.4100,0.6300,999.1518,9.7907,0.3887,0.4017,1590577195,N
82,1934516,9.8513,0.2536,0.7633,-1.6800,-0.7700,0.8400,999.1528,9.7898,0.3560,0.4505,1590577195,N
82,1934520,9.9685,0.2512,0.2800,2.9400,-4.0600,-1.7500,999.1547,9.7933,0.3356,0.3864,1590577195,N
82,1935885,9.9374,0.5073,0.1938,-1.4700,3.7100,0.6300,999.1565,9.7920,0.3791,0.3797,1590577195,N
81,1936921,9.9039,0.2417,0.7490,-0.9100,0.4900,1.2600,999.1573,9.7907,0.3479,0.4387,1590577195,N
81,1938441,9.9326,0.1914,0.3517,1.8900,-4.2700,-0.9800,999.1583,9.7942,0.3070,0.3881,1590577195,N
81,1940859,9.9254,0.5432,0.1340,0.6300,2.3100,-0.4200,999.1592,9.7932,0.3650,0.3624,1590577195,N
81,1941142,9.7914,0.3159,0.7107,-1.4000,1.8900,1.6100,999.1600,9.7907,0.3540,0.4329,1590577195,N
80,1938563,9.9278,0.2369,0.4355,1.8200,-4.1300,-0.4900,999.1604,9.7935,0.3179,0.3968,1590577196,N
81,1937404,9.9350,0.5025,0.1172,1.8200,1.6800,-0.8400,999.1605,9.7931,0.3701,0.3593,1590577196,N
81,1936991,9.8513,0.3637,0.6485,-1.6100,2.5200,1.4700,999.1600,9.7904,0.3694,0.4271,1590577196,N
80,1936829,9.9446,0.2800,0.5216,2.1000,-4.1300,-0.1400,999.1595,9.7925,0.3362,0.4050,1590577196,N
80,1938026,9.9541,0.4546,0.0718,0.8400,-1.1200,-1.3300,999.1591,9.7941,0.3698,0.3301,1590577196,N
80,1939384,9.8465,0.3613,0.4786,-2.0300,3.9200,1.6800,999.1587,9.7920,0.3715,0.3869,1590577196,N
80,1940565,9.8680,0.3206,0.6365,1.3300,-2.5900,1.6800,999.1583,9.7928,0.3381,0.3974,1590577196,N
80,1942544,9.9948,0.4020,0.1484,2.3800,-2.4500,-2.3100,999.1580,9.7943,0.3645,0.3316,1590577196,N
79,1941165,9.8560,0.4977,0.3661,-1.3300,3.8500,0.7000,999.1583,9.7913,0.4025,0.3716,1590577196,N
80,1939303,9.8201,0.3422,0.6963,0.7000,-1.4700,0.7700,999.1595,9.7906,0.3821,0.4109,1590577196,N
79,1939223,9.9829,0.2895,0.1149,1.8200,-1.7500,-1.0500,999.1609,9.7939,0.3736,0.3327,1590577197,N
80,1939509,9.8536,0.4187,0.3613,-2.2400,4.7600,0.8400,999.1621,9.7912,0.3986,0.3787,1590577197,N
79,1939922,9.8632,0.2441,0.7346,0.4900,-1.1200,0.7000,999.1627,9.7908,0.3616,0.4231,1590577197,N
79,1941171,9.9470,0.1699,0.2991,2.5200,-4.0600,-1.4000,999.1636,9.7946,0.3158,0.3697,1590577197,N
79,1943149,9.9278,0.5168,0.2321,-0.9800,3.4300,-1.4000,999.1646,9.7918,0.3806,0.3818,1590577197,N
79,1943792,9.8632,0.3541,0.6796,-1.2600,1.3300,1.5400,999.1649,9.7898,0.3702,0.4392,1590577197,N
78,1941707,9.9709,0.1890,0.3709,1.6800,-3.7100,-0.4200,999.1653,9.7935,0.3203,0.3946,1590577197,N
78,1940943,9.9517,0.4666,0.1675,-0.8400,2.5200,-0.2800,999.1650,9.7929,0.3626,0.3723,1590577197,N
78,1940555,9.8513,0.3111,0.7418,-1.1200,1.6100,1.1900,999.1643,9.7902,0.3538,0.4444,1590577197,N
78,1940740,9.9159,0.2895,0.3996,2.5200,-3.9900,-0.3500,999.1629,9.7930,0.3284,0.3992,1590577197,N
78,1942004,9.9015,0.4642,0.1172,-0.2800,1.7500,-0.3500,999.1621,9.7932,0.3687,0.3587,1590577198,N
78,1943198,9.8297,0.2847,0.7011,-1.4700,2.4500,1.4700,999.1614,9.7907,0.3540,0.4329,1590577198,N
78,1944382,9.8991,0.3422,0.4786,2.2400,-3.2900,0.2100,999.1619,9.7924,0.3366,0.4082,1590577198,N
78,1944483,9.9517,0.5049,0.1412,0.1400,1.1900,-1.0500,999.1623,9.7920,0.3862,0.3705,1590577198,N
78,1942429,9.8608,0.3541,0.6724,-1.5400,2.8700,0.9100,999.1620,9.7889,0.3872,0.4456,1590577198,N
77,1941161,9.8824,0.2489,0.6078,1.4000,-3.8500,0.2100,999.1614,9.7909,0.3432,0.4360,1590577198,N
78,1941651,9.9494,0.4187,0.1460,1.4000,-1.1200,-1.8900,999.1608,9.7924,0.3756,0.3719,1590577198,N
77,1942144,9.9039,0.4810,0.6341,-1.4700,3.7800,0.7700,999.1606,9.7878,0.4070,0.4511,1590577198,N
77,1942813,9.8297,0.3565,0.6365,1.5400,-3.1500,0.7700,999.1601,9.7890,0.3789,0.4507,1590577198,N
77,1944529,9.9924,0.4451,0.1890,1.4000,-1.7500,-1.8200,999.1602,9.7907,0.4041,0.3863,1590577198,N
77,1945756,9.8656,0.4116,0.4857,-1.6800,3.2200,0.4900,999.1605,9.7883,0.4150,0.4326,1590577199,N
77,1943597,9.8656,0.3254,0.6150,0.8400,-2.3100,0.3500,999.1603,9.7891,0.3856,0.4420,1590577199,N
77,1942552,9.9302,0.3494,0.1771,1.8900,-1.8200,-1.1900,999.1597,9.7920,0.3865,0.3714,1590577199,N
76,1942575,9.8249,0.4187,0.3517,-1.8900,4.4100,1.0500,999.1592,9.7900,0.4036,0.4036,1590577199,N
77,1942295,9.8800,0.3494,0.7250,1.0500,-1.1900,0.5600,999.1586,9.7889,0.3870,0.4446,1590577199,N
76,1943138,9.9350,0.2393,0.2393,1.6800,-3.2900,-1.6100,999.1585,9.7927,0.3590,0.3795,1590577199,N
76,1944760,9.9589,0.4211,0.3015,-0.8400,3.4300,0.4900,999.1579,9.7914,0.3812,0.3919,1590577199,N
76,1945668,9.8560,0.2728,0.7681,-0.2100,0.7000,1.6800,999.1574,9.7898,0.3534,0.4526,1590577199,N
76,1944580,9.9111,0.2441,0.3374,1.9600,-4.2000,-0.5600,999.1570,9.7935,0.3198,0.3935,1590577199,N
76,1943209,9.8704,0.5456,0.1771,-0.4900,2.9400,0.1400,999.1571,9.7922,0.3743,0.3793,1590577199,N
76,1942498,9.8536,0.2895,0.6867,-1.1200,1.1900,1.2600,999.1570,9.7905,0.3546,0.4368,1590577200,N
76,1942415,9.9661,0.2512,0.3470,1.9600,-4.3400,-0.6300,999.1569,9.7940,0.3215,0.3814,1590577200,N
76,1943311,9.9182,0.4881,0.1101,-0.2100,1.6100,-0.9800,999.1568,9.7935,0.3709,0.3457,1590577200,N
76,1944329,9.8632,0.3589,0.6580,-1.6800,2.8700,1.8900,999.1567,9.7908,0.3679,0.4186,1590577200,N
76,1945280,9.9374,0.3015,0.5815,1.6800,-3.5000,0.6300,999.1564,9.7923,0.3355,0.4100,1590577200,N
76,1947180,9.9230,0.4235,0.1579,1.6800,-0.2800,-1.0500,999.1561,9.7933,0.3653,0.3589,1590577200,N
76,1946780,9.8704,0.4546,0.5312,-0.5600,0.5600,-0.4200,999.1554,9.7908,0.3897,0.3981,1590577200,N
76,1944780,9.8441,0.4618,0.3494,1.8200,-3.5000,-0.5600,999.1541,9.7922,0.3925,0.3582,1590577200,N
76,1944261,9.9924,0.3709,0.0766,0.4900,0.9100,-0.7000,999.1528,9.7935,0.4054,0.3056,1590577200,N
77,1944249,9.9135,0.3685,0.4283,-1.6800,3.9200,1.1900,999.1517,9.7915,0.4081,0.3601,1590577200,N
76,1944296,9.8465,0.3039,0.6628,1.3300,-3.2900,0.1400,999.1508,9.7921,0.3750,0.3811,1590577201,N
76,1945333,9.9948,0.3206,0.0550,1.8200,-2.5200,-2.0300,999.1500,9.7950,0.3797,0.2918,1590577201,N
76,1946758,9.8704,0.4475,0.4187,-1.6800,4.2700,0.9800,999.1497,9.7918,0.4081,0.3515,1590577201,N
77,1947585,9.8513,0.2345,0.6341,1.4000,-1.6800,0.9800,999.1492,9.7927,0.3600,0.3798,1590577201,N
76,1946814,10.0235,0.3039,0.0933,2.1700,-2.5200,-1.8200,999.1483,9.7954,0.3612,0.2999,1590577201,N
76,1945487,9.8656,0.4857,0.4116,-2.1700,4.7600,1.4000,999.1470,9.7919,0.3982,0.3601,1590577201,N
77,1944569,9.9087,0.2058,0.7059,0.5600,-1.3300,1.1900,999.1465,9.7924,0.3475,0.3981,1590577201,N
77,1944800,9.9278,0.3972,0.0742,1.6100,-2.3100,-1.8200,999.1465,9.7945,0.3711,0.3161,1590577201,N
77,1945420,9.8848,0.4618,0.4403,-1.6800,3.7100,0.8400,999.1462,9.7915,0.4007,0.3702,1590577201,N
77,1945864,9.8441,0.2752,0.6293,1.0500,-2.2400,0.2800,999.1458,9.7920,0.3650,0.3922,1590577201,N
77,1947392,9.9709,0.4427,0.1220,1.8200,-1.2600,-1.0500,999.1458,9.7935,0.3881,0.3284,1590577202,N
77,1947949,9.8465,0.4068,0.5312,-2.3800,3.7800,1.4000,999.1459,9.7906,0.3990,0.3948,1590577202,N
77,1945513,9.8680,0.3541,0.5503,1.4000,-2.5900,1.4000,999.1465,9.7920,0.3657,0.3914,1590577202,N
77,1944437,9.9637,0.4546,0.1938,1.6100,-1.6100,-1.3300,999.1467,9.7930,0.3894,0.3413,1590577202,N
77,1944438,9.8943,0.4259,0.4235,-1.8200,3.8500,0.9100,999.1462,9.7905,0.4069,0.3884,1590577202,N
77,1944212,9.8943,0.3326,0.6485,0.7000,-2.4500,0.6300,999.1458,9.7909,0.3775,0.4073,1590577202,N
77,1945274,9.9781,0.3278,0.1938,2.3100,-2.8700,-2.1000,999.1448,9.7934,0.3768,0.3432,1590577202,N
77,1946785,9.8871,0.4977,0.3781,-1.6800,3.7100,0.4900,999.1440,9.7905,0.4131,0.3825,1590577202,N
77,1947700,9.8369,0.3159,0.7322,0.3500,-1.0500,0.9800,999.1440,9.7897,0.3860,0.4284,1590577202,N
77,1947907,9.9757,0.2895,0.1364,2.2400,-3.5700,-1.8900,999.1440,9.7936,0.3748,0.3383,1590577202,N
77,1946700,9.8967,0.4427,0.2417,-1.8900,3.9200,0.4200,999.1438,9.7919,0.4046,0.3531,1590577203,N
77,1945500,9.8919,0.2560,0.7585,-0.0700,-0.5600,1.1200,999.1438,9.7911,0.3699,0.4099,1590577203,N
77,1945496,9.9709,0.1962,0.2273,2.1700,-3.9900,-2.1700,999.1434,9.7947,0.3363,0.3469,1590577203,N
77,1946301,9.8991,0.4738,0.2680,-1.7500,3.9200,0.5600,999.1431,9.7927,0.3747,0.3654,1590577203,N
77,1946732,9.8249,0.2943,0.7346,-0.3500,0.0700,0.9800,999.1430,9.7910,0.3567,0.4242,1590577203,N
77,1947786,10.0068,0.2345,0.2034,2.0300,-3.4300,-0.9100,999.1428,9.7949,0.3283,0.3498,1590577203,N
77,1948864,9.9422,0.4355,0.3182,-1.6100,4.6200,0.7700,999.1434,9.7925,0.3616,0.3825,1590577203,N
77,1946648,9.8656,0.3230,0.7490,-0.8400,0.9100,1.4000,999.1440,9.7903,0.3499,0.4453,1590577203,N
77,1945403,9.9781,0.2106,0.3398,2.1700,-3.6400,-0.7700,999.1446,9.7937,0.3127,0.3945,1590577203,N
77,1945635,9.9685,0.5001,0.2369,-0.9100,3.0100,-0.4900,999.1442,9.7919,0.3654,0.3943,1590577203,N
77,1945654,9.8560,0.3350,0.7155,-0.7700,1.3300,1.3300,999.1429,9.7896,0.3563,0.4550,1590577204,N
77,1946151,9.9517,0.2201,0.4068,2.8700,-4.6200,-0.7000,999.1425,9.7931,0.3166,0.4058,1590577204,N
77,1947699,9.9733,0.4881,0.1890,-0.2800,2.1000,-0.6300,999.1410,9.7923,0.3644,0.3842,1590577204,N
77,1948922,9.8465,0.2465,0.7107,-1.1200,1.6100,1.3300,999.1397,9.7905,0.3397,0.4476,1590577204,N
77,1947821,9.9398,0.2943,0.3685,2.7300,-4.5500,-0.5600,999.1384,9.7936,0.3189,0.3914,1590577204,N
77,1946622,9.9254,0.5097,0.1555,-0.0700,2.1700,-0.3500,999.1382,9.7929,0.3682,0.3662,1590577204,N
77,1945981,9.8680,0.3159,0.6724,-1.4700,2.0300,1.1900,999.1382,9.7905,0.3591,0.4325,1590577204,N
78,1945610,9.9254,0.2895,0.4355,2.3100,-4.4800,-0.3500,999.1388,9.7932,0.3302,0.3920,1590577204,N
77,1946662,9.9541,0.4929,0.1627,0.4200,0.4900,-1.4700,999.1387,9.7929,0.3772,0.3563,1590577204,N
78,1947944,9.8919,0.3900,0.5575,-1.1900,3.1500,1.6800,999.1384,9.7905,0.3794,0.4144,1590577204,N
77,1948814,9.9494,0.1986,0.5001,1.4000,-4.1300,0.3500,999.1382,9.7936,0.3223,0.3894,1590577205,N
78,1950478,9.9326,0.3924,0.1364,1.0500,-0.9800,-1.4700,999.1375,9.7948,0.3484,0.3320,1590577205,N
78,1949293,9.9422,0.4953,0.4499,-2.5200,3.4300,1.1200,999.1373,9.7918,0.3809,0.3818,1590577205,N
78,1947677,9.8584,0.2656,0.5480,1.4700,-2.8000,0.7700,999.1368,9.7933,0.3403,0.3817,1590577205,N
78,1947830,9.9350,0.3972,0.1172,1.4000,-1.6800,-1.7500,999.1367,9.7948,0.3633,0.3163,1590577205,N
78,1948166,9.8800,0.4522,0.4666,-2.1000,4.2700,1.1900,999.1365,9.7915,0.3908,0.3793,1590577205,N
78,1948494,9.9278,0.3063,0.5910,0.9100,-2.8700,0.2100,999.1357,9.7923,0.3608,0.3884,1590577205,N
78,1949778,9.9733,0.4187,0.0239,1.6800,-1.7500,-1.9600,999.1352,9.7944,0.3877,0.3011,1590577205,N
78,1951114,9.8608,0.3996,0.4116,-1.7500,4.6200,1.3300,999.1349,9.7918,0.4029,0.3595,1590577205,N
78,1949298,9.8919,0.3422,0.6150,0.4200,-1.8200,0.7000,999.1349,9.7918,0.3779,0.3839,1590577205,N
78,1947864,9.9422,0.4164,0.0837,1.8900,-1.7500,-1.6100,999.1347,9.7937,0.3974,0.3098,1590577206,N
78,1947670,9.9326,0.4044,0.3565,-1.8200,4.3400,0.6300,999.1343,9.7914,0.4162,0.3558,1590577206,N
78,1947032,9.8656,0.2752,0.7083,-0.1400,-1.1200,0.7000,999.1338,9.7910,0.3813,0.4016,1590577206,N
78,1947422,9.9589,0.2895,0.3302,1.8900,-4.2000,-1.5400,999.1330,9.7937,0.3566,0.3548,1590577206,N
78,1948798,9.9326,0.5575,0.2034,-0.7700,2.8700,-0.3500,999.1329,9.7917,0.4105,0.3539,1590577206,N
78,1949573,9.9039,0.3326,0.6724,-1.3300,2.5200,2.0300,999.1329,9.7896,0.3921,0.4237,1590577206,N
78,1948211,9.8800,0.2130,0.4929,2.3100,-4.2000,-0.1400,999.1343,9.7927,0.3385,0.3976,1590577206,N
78,1946771,9.9350,0.4929,0.1053,0.4200,0.6300,-1.1200,999.1351,9.7929,0.3835,0.3485,1590577206,N
78,1946104,9.8680,0.3924,0.6054,-1.1900,2.4500,1.4000,999.1348,9.7904,0.3862,0.4111,1590577206,N
78,1945611,9.9182,0.2512,0.4690,2.3100,-3.7100,-0.0700,999.1346,9.7930,0.3431,0.3869,1590577206,N
78,1946380,9.9996,0.4164,0.1053,0.9800,0.4200,-1.7500,999.1339,9.7935,0.3793,0.3371,1590577207,N
78,1947217,9.8441,0.3709,0.5910,-2.1000,2.8700,1.2600,999.1336,9.7909,0.3820,0.4043,1590577207,N
78,1947798,9.9661,0.3398,0.4810,1.8900,-4.2000,-0.2100,999.1324,9.7928,0.3566,0.3790,1590577207,N
78,1948810,9.9374,0.4570,0.0790,0.0700,0.7700,-0.7000,999.1312,9.7935,0.3894,0.3257,1590577207,N
78,1947062,9.8584,0.3709,0.5838,-1.3300,3.8500,1.2600,999.1300,9.7904,0.3959,0.4024,1590577207,N
78,1945430,9.8871,0.2871,0.6389,1.8200,-3.6400,0.0700,999.1290,9.7915,0.3602,0.4082,1590577207,N
78,1945735,10.0044,0.3446,0.1340,1.8200,-2.5900,-2.1700,999.1278,9.7940,0.3707,0.3327,1590577207,N
79,1946186,9.9015,0.4786,0.4164,-1.7500,3.9200,0.8400,999.1270,9.7910,0.4024,0.3815,1590577207,N
78,1946400,9.8871,0.3087,0.6532,0.7700,-2.0300,0.7000,999.1260,9.7912,0.3716,0.4064,1590577207,N
79,1947744,9.9135,0.2608,0.1436,2.2400,-2.5900,-1.9600,999.1255,9.7943,0.3617,0.3324,1590577207,N
79,1949457,9.9063,0.4427,0.4235,-1.9600,5.0400,1.2600,999.1252,9.7911,0.3893,0.3907,1590577208,N
79,1948364,9.9111,0.2393,0.7107,0.9100,-2.4500,0.7700,999.1252,9.7917,0.3467,0.4168,1590577208,N
79,1947156,10.0068,0.3685,0.0694,1.6800,-3.0800,-1.6100,999.1252,9.7948,0.3601,0.3191,1590577208,N
79,1946979,9.9039,0.5982,0.3135,-1.4000,4.4100,0.4900,999.1255,9.7909,0.4229,0.3592,1590577208,N
79,1946315,9.8871,0.3182,0.6508,0.1400,-0.1400,0.9100,999.1255,9.7903,0.3960,0.4042,1590577208,N
79,1946696,9.9733,0.1723,0.3230,1.2600,-2.8000,-0.8400,999.1254,9.7938,0.3408,0.3687,1590577208,N
79,1948037,9.8895,0.4570,0.2943,-1.0500,3.6400,0.2800,999.1257,9.7918,0.3765,0.3862,1590577208,N
79,1948561,9.8656,0.3087,0.6389,-0.2100,0.8400,1.1900,999.1261,9.7906,0.3580,0.4318,1590577208,N
79,1947819,9.8871,0.2441,0.3470,1.6800,-3.9200,-0.3500,999.1259,9.7940,0.3217,0.3805,1590577208,N
79,1946146,9.9063,0.5264,0.1699,-0.7000,2.2400,-0.2800,999.1254,9.7929,0.3728,0.3620,1590577208,N
79,1945067,9.8584,0.3446,0.7346,-1.6800,2.0300,2.1700,999.1243,9.7903,0.3616,0.4347,1590577209,N
79,1944682,9.9517,0.2847,0.4738,1.1200,-3.5000,1.4700,999.1234,9.7933,0.3177,0.3998,1590577209,N
79,1945295,9.9278,0.4379,0.1364,1.6100,2.5200,2.1000,999.1227,9.7942,0.3384,0.3597,1590577209,N
79,1948762,9.9589,-0.0191,0.8566,3.4300,4.9000,4.6900,999.1218,9.7933,0.2565,0.4425,1590577209,N
79,1952071,9.8130,0.4211,0.6078,1.4000,-3.2200,0.7000,999.1208,9.7930,0.2723,0.4391,1590577209,N
79,1952340,10.0044,0.1460,0.2345,0.0700,-0.4900,-2.5200,999.1204,9.7945,0.2655,0.4090,1590577209,N
79,1950792,9.8895,0.4235,0.5073,-1.1200,1.6100,-1.7500,999.1201,9.7910,0.3169,0.4548,1590577209,N
79,1950267,9.8943,0.2393,0.5838,0.1400,-2.3100,0.3500,999.1199,9.7919,0.2909,0.4526,1590577209,N
79,1950711,10.0068,0.2728,0.2417,1.6100,-1.1900,-1.8200,999.1202,9.7936,0.3027,0.4059,1590577209,N
80,1951438,9.8943,0.3278,0.6317,-1.2600,4.2700,1.8200,999.1201,9.7904,0.3057,0.4741,1590577209,N
79,1952267,9.9159,0.1436,0.6604,1.0500,-2.5900,0.2800,999.1205,9.7915,0.2648,0.4760,1590577210,N
80,1953756,9.9733,0.0837,0.3135,0.9100,-3.9900,-2.8700,999.1198,9.7940,0.2409,0.4360,1590577210,N
80,1952767,9.8728,0.3422,0.3565,-0.5600,2.8000,-0.7700,999.1194,9.7925,0.2746,0.4495,1590577210,N
80,1950121,9.8991,0.3661,0.6269,0.0700,-0.7700,0.7000,999.1193,9.7912,0.2837,0.4709,1590577210,N
80,1949145,9.9039,0.2225,0.3015,0.7000,-3.3600,-0.7700,999.1198,9.7944,0.2698,0.4091,1590577210,N
80,1948553,9.9182,0.3805,0.2345,-0.9800,3.3600,-0.7700,999.1204,9.7934,0.3096,0.4053,1590577210,N
80,1947714,9.8417,0.1364,0.7753,-0.9100,1.8200,1.4000,999.1203,9.7914,0.2750,0.4728,1590577210,N
80,1947959,9.9470,0.2010,0.4187,2.0300,-4.9000,-0.3500,999.1212,9.7946,0.2494,0.4182,1590577210,N
80,1949185,9.9637,0.3948,0.1579,-0.5600,1.8200,-0.4200,999.1214,9.7950,0.2900,0.3807,1590577210,N
80,1946349,9.9350,0.3326,0.6867,-1.5400,2.3100,1.4700,999.1212,9.7920,0.2946,0.4465,1590577210,N
80,1943812,9.9182,0.1819,0.4235,2.3800,-3.5700,0.1400,999.1209,9.7948,0.2588,0.4068,1590577211,N
80,1943320,9.9709,0.3613,0.1244,-0.2800,1.4700,-0.4900,999.1211,9.7956,0.2935,0.3614,1590577211,N
80,1942994,9.8465,0.3015,0.6915,-0.9100,2.3800,1.8200,999.1208,9.7929,0.2909,0.4294,1590577211,N
81,1943102,9.9541,0.1819,0.5001,2.0300,-4.0600,-0.3500,999.1202,9.7949,0.2588,0.4039,1590577211,N
80,1944393,9.9637,0.3829,0.0455,0.0700,1.1200,-0.9800,999.1191,9.7960,0.3035,0.3428,1590577211,N
81,1944376,9.8393,0.3230,0.7298,-0.0700,2.3800,1.3300,999.1182,9.7926,0.3106,0.4233,1590577211,N
81,1940446,9.9517,0.2465,0.5145,3.4300,-5.0400,-1.1200,999.1168,9.7943,0.2906,0.3968,1590577211,N
81,1938718,9.9805,0.4044,0.1196,-0.6300,1.4700,-1.0500,999.1153,9.7945,0.3319,0.3566,1590577211,N
81,1938448,9.8584,0.3230,0.6126,-1.8200,3.3600,1.4700,999.1135,9.7918,0.3321,0.4253,1590577211,N
81,1938616,9.8489,0.3015,0.4594,3.0800,-3.5700,0.6300,999.1121,9.7939,0.3072,0.3936,1590577211,N
81,1939868,9.9781,0.4116,0.1005,0.6300,-3.5700,-1.8900,999.1110,9.7962,0.3325,0.3079,1590577212,N
81,1940715,9.8513,0.3063,0.5719,-1.6100,3.7800,1.2600,999.1109,9.7934,0.3356,0.3844,1590577212,N
81,1941262,9.8967,0.2656,0.5815,1.4000,-3.6400,0.2800,999.1111,9.7944,0.3071,0.3829,1590577212,N
81,1939802,9.9924,0.4331,0.0670,2.1000,-2.1000,-2.5900,999.1113,9.7956,0.3486,0.3081,1590577212,N
81,1938230,9.8560,0.4522,0.4307,-1.4000,3.9200,1.4700,999.1115,9.7928,0.3743,0.3619,1590577212,N
81,1937896,9.8919,0.3757,0.5934,2.5900,-4.2700,0.9100,999.1115,9.7938,0.3502,0.3588,1590577212,N
81,1938754,10.0211,0.3709,0.0479,1.9600,-3.0800,-2.1000,999.1122,9.7962,0.3623,0.2695,1590577212,N
