0,2477384,3.4935,5.3719,7.3866,1.8900,0.0700,-1.4700,999.2453,3.5035,5.3872,7.4077,1590579973,N
0,2475580,3.6586,5.1900,7.3627,-0.4200,0.0700,-0.2100,999.2499,3.5392,5.3547,7.4143,1590579973,N
0,2475727,3.5701,5.1182,7.3268,-0.2800,-0.2100,0.3500,999.2538,3.5615,5.3239,7.4258,1590579973,N
0,160938,3.6467,5.0273,7.3268,-2.3100,-0.6300,0.2100,999.2571,3.5965,5.2709,7.4467,1590579973,N
0,2147483647,3.6251,5.1685,7.3579,1.1900,0.1400,-0.9800,999.2604,3.6069,5.2743,7.4393,1590579973,N
0,2147483647,3.5916,5.1996,7.3795,-0.4200,-1.0500,-1.1900,999.2625,3.6117,5.2745,7.4368,1590579974,N
0,1205650,3.6682,5.2403,7.2622,-0.5600,-1.2600,-3.9200,999.2647,3.6236,5.2991,7.4135,1590579974,N
0,1229451,3.6610,5.5920,7.8126,8.2600,-1.2600,-5.6700,999.2657,3.5888,5.3904,7.3644,1590579974,N
0,1843129,3.6060,5.1374,7.3460,-1.7500,-2.3800,-6.8600,999.2660,3.5873,5.3811,7.3720,1590579974,N
0,1937895,3.2542,5.4221,7.0684,3.4300,-2.3800,-11.6900,999.2669,3.5104,5.5100,7.3135,1590579974,N
0,1940717,2.1248,5.6279,7.4943,13.7900,-9.6600,-27.9300,999.2672,3.1836,5.8339,7.2111,1590579974,N
0,1941147,2.2804,5.3432,7.0373,21.0000,-28.9100,-60.9700,999.2678,2.9177,6.3831,6.8493,1590579974,N
0,1943679,0.5527,7.9418,7.4824,-101.0800,-116.5500,-68.7400,999.2689,2.9240,6.5402,6.6968,1590579974,N
0,2101123,3.3452,5.3958,8.2337,-95.8300,-132.0200,-78.9600,999.2695,3.3372,6.2479,6.7822,1590579974,N
0,2126384,5.6136,6.4223,5.3456,12.5300,-91.5600,-63.9800,999.2697,3.7859,6.7362,6.0382,1590579974,N
0,2145713,6.7837,6.0514,5.0393,-21.7700,-32.8300,-37.6600,999.2698,4.2431,6.6726,5.8002,1590579975,N
0,2150373,6.8172,7.1617,5.4102,-10.0100,-16.4500,-13.6500,999.2709,4.4427,6.6611,5.6623,1590579975,N
0,2155896,5.6399,6.1089,5.2857,3.4300,8.6800,6.4400,999.2714,4.6650,6.5541,5.6082,1590579975,N
0,2155405,4.8120,5.7619,6.4343,10.0800,14.6300,6.0900,999.2723,4.6577,6.4233,5.7635,1590579975,N
0,2152620,4.8622,5.2881,6.0562,12.4600,10.4300,1.6800,999.2731,4.7048,6.3031,5.8572,1590579975,N
0,2150300,4.6732,5.8935,6.5874,-5.6700,3.9900,-9.8000,999.2740,4.6172,6.2190,6.0147,1590579975,N
0,2144979,4.7091,6.1376,6.0873,5.6000,0.7700,-13.2300,999.2752,4.5549,6.2968,5.9811,1590579975,N
0,2134147,4.4052,6.1184,5.8840,2.8000,5.3900,-11.2700,999.2763,4.4578,6.3614,5.9859,1590579975,N
0,2127651,4.5559,6.3410,5.7882,-9.7300,5.3900,-5.6000,999.2774,4.4308,6.3371,6.0316,1590579975,N
0,2124493,4.1563,6.3601,6.2907,7.2100,2.1700,1.8900,999.2775,4.3684,6.3667,6.0459,1590579975,N
0,2122869,3.8836,6.0514,6.4487,-2.0300,3.3600,0.6300,999.2783,4.2725,6.3092,6.1734,1590579976,N
0,2124261,3.9266,6.0682,6.1687,0.8400,1.3300,-0.0700,999.2791,4.2215,6.3048,6.2128,1590579976,N
0,2127073,4.2185,6.4415,6.2285,2.7300,1.4700,1.1200,999.2797,4.2106,6.3281,6.1965,1590579976,N
0,2127603,4.3262,6.0491,6.0706,2.5200,0.3500,2.3800,999.2806,4.2629,6.3006,6.1887,1590579976,N
0,2118463,4.2999,5.9773,6.0706,-0.7700,-0.5600,5.3200,999.2823,4.3250,6.2389,6.2081,1590579976,N
0,2112120,4.5057,5.9127,6.5085,5.3900,0.2800,2.5900,999.2838,4.3683,6.1831,6.2336,1590579976,N
0,2109557,4.2616,5.8361,5.8887,2.7300,2.8000,-1.8200,999.2847,4.3673,6.1957,6.2218,1590579976,N
0,2107202,4.1468,6.4080,6.2572,-3.1500,2.4500,-0.9800,999.2845,4.3000,6.2136,6.2507,1590579976,N
0,2105939,4.1300,6.4032,6.5587,-27.4400,-6.7200,8.0500,999.2850,4.3195,6.0296,6.4153,1590579976,N
0,2103865,5.3623,5.9318,6.3960,41.3000,-7.0700,1.4700,999.2861,4.5295,6.2044,6.0958,1590579976,N
0,2101514,4.6780,7.3531,6.6760,86.3100,30.7300,7.6300,999.2874,4.3463,6.6997,5.6916,1590579977,N
0,2095953,3.6467,6.6903,6.4128,77.4200,31.5700,-13.3700,999.2875,3.9465,7.1250,5.4617,1590579977,N
0,2096164,3.6562,8.2409,3.4600,45.5700,37.1700,-7.9800,999.2878,3.7206,7.6301,4.9102,1590579977,N
0,2100885,2.8905,8.7912,3.2016,47.6000,65.0300,-13.7200,999.2877,3.2444,8.0891,4.4956,1590579977,N
0,2105323,3.8859,9.9661,1.8114,31.2900,62.5800,15.2600,999.2867,3.1872,8.2502,4.2364,1590579977,N
0,2114111,3.6443,9.6455,1.9214,13.6500,39.3400,62.9300,999.2858,3.5767,8.2429,3.9285,1590579977,N
0,2122597,2.2923,9.9757,4.4746,17.9200,71.3300,72.7300,999.2856,3.6541,7.9287,4.4670,1590579977,N
0,2128265,2.3952,6.9942,3.9745,-15.4000,41.4400,84.6300,999.2856,3.9280,7.4125,5.0790,1590579977,N
0,2128275,4.0726,6.0514,3.2686,-9.5200,32.4100,25.2700,999.2855,4.0474,7.2268,5.2500,1590579977,N
0,2131271,4.1324,8.3390,3.4528,7.0000,42.9100,4.0600,999.2845,3.9580,7.4193,5.0457,1590579978,N
0,2138806,4.2353,6.3625,5.1278,-38.2900,49.4900,17.5000,999.2838,3.9266,6.9665,5.6763,1590579978,N
0,2145561,5.2259,5.8170,5.2499,-25.3400,1.8900,-13.7200,999.2834,4.1238,6.7494,5.7975,1590579978,N
0,2150897,3.0054,8.6620,5.5705,-5.9500,6.4400,-5.0400,999.2831,3.8155,6.9482,5.7736,1590579978,N
0,2155017,3.8189,7.2790,5.3575,-14.1400,-0.6300,3.6400,999.2820,3.8466,6.9229,5.7834,1590579978,N
0,2158406,4.1276,6.4678,5.8074,-8.6100,-1.7500,2.0300,999.2813,3.9371,6.8067,5.8599,1590579978,N
0,2160114,4.0199,6.9153,5.7739,-6.9300,2.3100,3.4300,999.2806,3.9586,6.7626,5.8964,1590579978,N
0,2162287,4.0415,6.2836,5.7547,-9.0300,0.0700,2.1700,999.2804,4.0199,6.6574,5.9741,1590579978,N
0,2164860,4.1013,6.5994,5.9677,-18.7600,-1.8900,2.0300,999.2804,4.0603,6.5339,6.0821,1590579978,N
0,2166975,4.2592,5.7954,6.3529,-20.6500,-0.4200,4.4100,999.2801,4.1472,6.2723,6.2952,1590579978,N
0,2168364,4.0295,6.1400,6.1424,-3.0800,0.7000,0.8400,999.2799,4.1437,6.2524,6.3172,1590579978,N
0,2170219,4.2305,6.3410,6.3458,2.5900,0.4200,-0.5600,999.2792,4.1466,6.2732,6.2947,1590579979,N
0,2169700,4.2401,6.1280,6.2524,-2.1000,0.7000,1.6100,999.2784,4.1767,6.2331,6.3145,1590579979,N
0,2167650,4.2281,6.4056,6.2070,12.0400,1.0500,-1.6800,999.2781,4.1678,6.3362,6.2171,1590579979,N
0,2169151,4.1779,6.2333,6.4247,1.0500,-1.3300,-0.3500,999.2781,4.1690,6.3165,6.2363,1590579979,N
0,2171631,4.1013,6.3482,6.1184,-4.5500,-1.3300,1.1200,999.2787,4.1754,6.3036,6.2451,1590579979,N
0,2173519,4.1252,6.2429,6.2261,-5.4600,0.6300,0.7000,999.2794,4.1718,6.2646,6.2866,1590579979,N
0,2175244,4.0917,6.4128,6.2764,-8.3300,-2.0300,0.3500,999.2800,4.1635,6.2395,6.3170,1590579979,N
0,2176462,4.2377,6.3553,6.3266,-1.6100,-0.4900,-0.9800,999.2802,4.1663,6.2445,6.3102,1590579979,N
0,2173202,4.1492,6.1400,6.1615,-3.7100,-0.4900,0.6300,999.2797,4.1831,6.2210,6.3222,1590579979,N
0,2171134,4.1850,6.1256,6.2118,-2.1700,-0.8400,0.4200,999.2788,4.2013,6.2049,6.3260,1590579980,N
0,2172754,4.1228,5.9605,6.3386,0.7700,0.2800,0.4200,999.2776,4.2019,6.1803,6.3497,1590579980,N
0,2174590,4.0606,6.2094,6.1161,7.3500,0.8400,-4.0600,999.2770,4.1650,6.2726,6.2831,1590579980,N
0,2175860,4.2209,5.8911,6.0730,-7.0000,-1.1200,3.0100,999.2764,4.2287,6.1861,6.3262,1590579980,N
0,2177410,4.1157,6.1065,6.0826,-4.0600,-1.3300,3.6400,999.2759,4.2536,6.1632,6.3318,1590579980,N
0,2179141,4.4602,6.1017,6.1280,2.1000,-6.3700,-3.2200,999.2753,4.3187,6.1977,6.2536,1590579980,N
0,2178537,4.3502,6.4271,6.4798,2.2400,-1.6100,-7.4200,999.2746,4.2687,6.2567,6.2292,1590579980,N
0,2180597,4.5583,6.3529,6.2692,-2.0300,-2.6600,-3.1500,999.2748,4.3044,6.2560,6.2052,1590579980,N
0,2182762,4.4148,5.9174,6.5180,4.9700,2.8700,2.4500,999.2748,4.3225,6.1967,6.2520,1590579980,N
0,2184358,4.2114,6.1184,6.5707,0.2800,2.0300,2.6600,999.2743,4.2945,6.1542,6.3129,1590579980,N
0,2185403,4.4004,5.8289,6.7023,-1.4700,0.2100,-0.6300,999.2744,4.3039,6.0712,6.3865,1590579980,N
0,2186428,4.3406,5.7619,6.6544,-1.7500,-0.4200,-0.2100,999.2744,4.3128,6.0000,6.4475,1590579981,N
0,2187282,4.2712,5.6853,6.3625,-30.4500,-9.7300,6.0900,999.2740,4.4018,5.7712,6.5945,1590579981,N
0,2186234,4.5105,5.2068,7.0134,-35.9800,-4.8300,3.6400,999.2735,4.4489,5.4255,6.8514,1590579981,N
0,2188088,4.4626,5.3958,6.9727,-7.4200,-1.2600,-0.9100,999.2735,4.4426,5.3715,6.8979,1590579981,N
0,2189892,4.6516,5.2618,6.9799,-3.7100,-1.2600,-1.6800,999.2740,4.4721,5.3259,6.9142,1590579981,N
0,2190664,4.4291,5.3743,6.9870,0.4900,0.7700,1.6800,999.2743,4.4618,5.3232,6.9229,1590579981,N
0,2191355,4.3837,5.2834,7.1354,1.3300,-0.3500,-0.7700,999.2748,4.4378,5.3178,6.9424,1590579981,N
0,2192033,4.4961,5.1350,7.0660,-5.2500,-0.9100,-1.8900,999.2747,4.4405,5.2566,6.9872,1590579981,N
0,2192143,4.4172,5.2857,7.0780,-2.8700,0.1400,-2.1700,999.2746,4.4163,5.2467,7.0099,1590579981,N
0,2191565,4.4865,5.1613,7.2407,-1.9600,-0.4200,-1.2600,999.2751,4.4120,5.2078,7.0416,1590579981,N
0,2192406,4.4267,5.1637,7.1689,1.4000,-0.5600,-0.8400,999.2756,4.4093,5.2046,7.0456,1590579982,N
0,2193361,4.4530,5.1015,7.0947,-5.3200,-3.1500,0.4900,999.2766,4.4337,5.1534,7.0679,1590579982,N
0,2193659,4.4961,5.4413,7.4728,4.0600,1.8200,-1.3300,999.2781,4.3922,5.1897,7.0673,1590579982,N
0,2194161,4.4554,4.9268,7.1354,-1.4700,-0.9100,-0.8400,999.2783,4.4108,5.1388,7.0928,1590579982,N
0,2194645,4.4028,5.1900,7.1569,0.2800,-1.5400,-1.1900,999.2784,4.4073,5.1515,7.0858,1590579982,N
0,2194379,3.4624,5.1398,6.6162,-27.4400,-14.4900,-0.1400,999.2790,4.3336,5.0883,7.1763,1590579982,N
0,2193056,3.7352,3.9362,8.8750,-88.6900,-39.4100,2.3100,999.2793,4.3304,4.3058,7.6732,1590579982,N
0,2193621,4.2520,1.4261,7.1713,-151.0600,-76.4400,-48.3000,999.2802,4.4649,3.2025,8.1227,1590579982,N
0,2193493,5.5083,-1.1462,7.8556,-225.2600,-73.6400,-75.3200,999.2811,8.8073,3.8922,1.8582,1590579982,N
0,2190856,7.3795,0.1484,5.3743,-207.9000,-76.0900,-58.8000,999.2822,9.0862,3.4674,1.2603,1590579983,N
0,2178053,20.0351,-0.5958,6.9153,-48.5800,-45.2200,-24.9200,999.2828,9.1642,3.4239,0.6821,1590579983,N
0,2178056,4.3645,-2.4885,0.8136,-45.5000,0.6300,-47.7400,999.2837,9.2649,3.0716,0.9469,1590579983,N
0,2156706,8.2313,1.0672,5.5178,-6.3000,28.4200,-58.8000,999.2850,9.2781,3.0182,0.9887,1590579983,N
0,2144987,7.8245,1.6965,5.5801,-24.2200,-1.8200,-24.8500,999.2863,9.3506,2.8297,0.8537,1590579983,N
0,2132010,8.2552,2.0028,5.6183,63.2800,14.2800,-15.5400,999.2881,9.4157,2.6883,0.5372,1590579983,N
0,2119314,8.0542,2.4981,5.6949,-8.3300,8.2600,2.2400,999.2916,9.4782,2.4436,0.6021,1590579983,N
0,2108529,8.1547,1.2419,5.6877,-1.8900,7.1400,5.6000,999.2950,9.5537,2.0725,0.7760,1590579983,N
0,2099478,7.9107,1.4836,6.0036,14.6300,6.5800,-2.8000,999.2979,6.0890,1.4292,7.5533,1590579983,N
0,2091658,8.1452,2.4861,5.1661,99.5400,24.9200,-4.4100,999.3008,6.9931,2.2748,6.4879,1590579983,N
0,2078831,7.4297,2.3043,7.1378,-44.5900,2.2400,-13.1600,999.3044,6.6612,2.0797,6.8902,1590579983,N
0,2069060,7.6666,2.4526,5.6925,-13.8600,0.6300,-4.4800,999.3075,6.7856,2.1256,6.7533,1590579984,N
0,2061592,7.4512,2.0650,6.5515,2.0300,-4.4800,0.7700,999.3092,6.9065,2.1124,6.6339,1590579984,N
0,2052306,7.5350,3.6395,4.9795,-18.8300,-21.5600,-15.9600,999.3105,7.1116,2.4392,6.2964,1590579984,N
0,2046318,7.9035,2.4311,5.1182,-13.5800,-9.5900,-7.7700,999.3113,7.2631,2.4414,6.1202,1590579984,N
0,2042123,7.8174,2.9695,5.3886,6.7200,-4.9000,-4.9700,999.3112,7.3995,2.6033,5.8856,1590579984,N
0,2035751,7.9179,3.0126,5.1733,10.4300,-4.3400,2.8000,999.3112,7.5679,2.7100,5.6172,1590579984,N
0,2024248,7.6834,2.5484,5.7165,-23.5200,3.2900,6.3000,999.3116,7.5232,2.5411,5.7545,1590579984,N
0,2014842,7.7767,2.6201,5.6423,-2.9400,5.3200,-3.2900,999.3122,7.4967,2.5592,5.7810,1590579984,N
0,2007092,7.8867,2.8522,5.1781,-4.9000,-2.3100,3.0100,999.3116,7.5921,2.5806,5.6454,1590579984,N
0,2000675,7.8509,2.7135,5.3169,-2.0300,1.9600,9.6600,999.3109,7.6745,2.5407,5.5513,1590579984,N
0,1996270,7.8891,2.3498,5.3551,0.7700,-2.7300,5.5300,999.3103,7.7613,2.4697,5.4620,1590579985,N
0,1993826,8.1117,2.4814,5.2116,-1.8200,-2.5200,2.9400,999.3102,7.8331,2.4387,5.3727,1590579985,N
0,1984631,8.0734,2.5747,5.4772,-2.6600,-0.2100,0.0700,999.3111,7.8312,2.4409,5.3744,1590579985,N
0,1976700,8.0782,2.4215,5.2929,-3.5700,-0.6300,-1.1900,999.3123,7.8448,2.4238,5.3624,1590579985,N
0,1973209,8.0207,2.5125,5.2690,-0.5600,-0.2800,0.6300,999.3134,7.8658,2.4298,5.3287,1590579985,N
0,1971075,8.0566,2.3856,5.2666,-4.9000,1.5400,3.4300,999.3141,7.8854,2.3774,5.3234,1590579985,N
0,1970166,7.9681,2.2373,5.4221,-1.6100,0.2100,1.4000,999.3154,7.8906,2.3308,5.3363,1590579985,N
0,1970568,8.0207,2.1894,5.3097,-0.9100,0.0700,-0.2800,999.3164,7.9029,2.2985,5.3322,1590579985,N
0,1971010,7.9681,2.3043,5.3743,-0.4900,0.0700,-0.2800,999.3169,7.9004,2.2961,5.3369,1590579985,N
0,1964162,7.9537,2.2253,5.3934,-1.0500,0.6300,0.8400,999.3174,7.9006,2.2707,5.3475,1590579985,N
0,1959794,8.0590,2.2684,5.3216,-0.7000,0.7700,0.7700,999.3182,7.9125,2.2583,5.3351,1590579986,N
0,1959379,7.9848,2.3186,5.4365,-1.0500,2.5900,3.5000,999.3189,7.9102,2.2404,5.3460,1590579986,N
0,1959447,8.0447,2.1105,5.3025,-1.8200,2.1000,2.7300,999.3194,7.9280,2.1896,5.3406,1590579986,N
0,1960164,7.9418,2.1057,5.5848,0.0700,1.3300,-0.1400,999.3195,7.9036,2.1698,5.3847,1590579986,N
0,1962047,7.9944,2.1966,5.4054,-0.2100,0.8400,-1.5400,999.3188,7.8934,2.1808,5.3953,1590579986,N
0,1963000,7.9370,2.1942,5.5298,0.2100,0.5600,-0.5600,999.3188,7.8786,2.1832,5.4158,1590579986,N
0,1957430,7.9490,2.1679,5.5274,0.0700,0.6300,1.0500,999.3193,7.8773,2.1693,5.4233,1590579986,N
0,1955585,7.9705,2.0626,5.5131,0.1400,0.2800,0.2100,999.3197,7.8800,2.1430,5.4299,1590579986,N
0,1956709,7.9633,2.2134,5.5537,-0.0700,0.2100,0.2100,999.3190,7.8724,2.1490,5.4385,1590579986,N
0,1957813,7.9346,2.1392,5.5418,-0.0700,-0.0700,0.2100,999.3190,7.8694,2.1409,5.4460,1590579986,N
0,1959848,7.9418,2.1368,5.6136,-0.1400,0.0700,0.4900,999.3193,7.8621,2.1301,5.4608,1590579987,N
0,1962562,7.9442,2.0889,5.5537,0.1400,0.3500,0.1400,999.3184,7.8606,2.1171,5.4680,1590579987,N
0,1962691,7.9490,2.1272,5.5107,0.4200,0.2100,0.4200,999.3179,7.8653,2.1141,5.4624,1590579987,N
0,1957966,8.0040,2.1511,5.5585,0.0700,0.2100,0.4900,999.3185,7.8673,2.1114,5.4606,1590579987,N
0,1957293,7.8796,2.1583,5.5490,-0.1400,-0.0700,0.4900,999.3193,7.8615,2.1141,5.4678,1590579987,N
0,1958677,7.9202,2.1607,5.5513,-0.4200,0.0700,0.2800,999.3194,7.8568,2.1157,5.4741,1590579987,N
0,1960009,7.9561,2.0841,5.5059,-0.2100,0.0700,0.1400,999.3210,7.8619,2.1039,5.4712,1590579987,N
0,1962379,7.9346,2.1081,5.5250,-0.0700,-0.1400,0.2100,999.3213,7.8639,2.0993,5.4701,1590579987,N
0,1965157,7.9466,2.1105,5.5609,0.7700,0.1400,0.3500,999.3227,7.8649,2.0972,5.4694,1590579987,N
0,1964203,7.9083,2.1392,5.5537,0.2100,0.1400,0.1400,999.3233,7.8598,2.1017,5.4751,1590579988,N
0,1960248,7.9370,2.1583,5.5322,-0.0700,-0.1400,0.1400,999.3238,7.8596,2.1072,5.4733,1590579988,N
0,1960120,7.9753,2.1416,5.5035,-0.2100,-0.1400,1.3300,999.3243,7.8719,2.0998,5.4584,1590579988,N
0,1961495,7.9394,2.0650,5.6231,-0.1400,-0.1400,0.7700,999.3235,7.8683,2.0817,5.4705,1590579988,N
0,1963071,7.9346,2.0794,5.5513,-0.1400,0.2100,0.2100,999.3223,7.8657,2.0754,5.4767,1590579988,N
0,1965600,7.9274,2.0913,5.5777,-0.1400,-0.2800,0.5600,999.3210,7.8650,2.0698,5.4798,1590579988,N
0,1968495,7.9825,2.0243,5.5777,-0.2800,0.2800,0.9800,999.3196,7.8697,2.0480,5.4812,1590579988,N
0,1966858,7.9250,2.0602,5.5681,-0.3500,0.3500,2.0300,999.3182,7.8749,2.0327,5.4795,1590579988,N
0,1963226,7.9896,2.0889,5.6088,0.5600,-0.0700,1.6100,999.3170,7.8814,2.0285,5.4717,1590579988,N
0,1963545,7.9250,1.9454,5.5418,-0.9800,-0.2800,1.1900,999.3152,7.8869,1.9983,5.4749,1590579988,N
89,1964854,7.9107,2.0052,5.5681,-0.4200,-0.8400,0.7000,999.3139,7.8874,1.9902,5.4771,1590579988,N
89,1966141,7.9011,2.0004,5.4820,-1.6800,0.3500,1.6100,999.3130,7.8905,1.9756,5.4780,1590579989,N
89,1968359,8.1715,1.8616,5.5418,-0.2800,0.3500,2.3800,999.3135,7.9197,1.9280,5.4527,1590579989,N
88,1970987,8.0806,2.1823,5.3862,3.3600,1.6800,5.5300,999.3134,7.9637,1.9506,5.3801,1590579989,N
89,1966985,7.9418,1.8162,5.7906,0.1400,1.8200,4.6200,999.3136,7.9521,1.8899,5.4188,1590579989,N
88,1964233,8.0518,1.7803,5.5657,-3.4300,-0.3500,1.0500,999.3143,7.9477,1.8435,5.4411,1590579989,N
88,1965184,8.0662,1.8281,5.6734,-2.3800,-2.1700,-2.5900,999.3146,7.9229,1.8388,5.4788,1590579989,N
88,1966414,8.0566,1.7587,5.6255,-3.3600,-0.1400,0.1400,999.3142,7.9115,1.8034,5.5069,1590579989,N
88,1968115,7.8580,1.8568,5.5585,-7.5600,-3.2200,2.3100,999.3133,7.9063,1.7703,5.5250,1590579989,N
88,1970509,7.9729,1.5242,5.6758,-2.5900,-3.2200,1.6100,999.3126,7.9221,1.6969,5.5256,1590579989,N
88,1970493,8.0590,1.5290,5.4556,0.0700,-0.1400,0.2100,999.3109,7.9442,1.6608,5.5047,1590579989,N
88,1965999,8.0423,1.6008,5.5370,0.2800,-0.7700,-0.2800,999.3097,7.9526,1.6483,5.4963,1590579990,N
88,1965052,8.0901,1.6343,5.5968,0.0700,-0.2100,0.7700,999.3083,7.9599,1.6354,5.4896,1590579990,N
88,1966556,8.0160,1.5458,5.6088,-0.9100,-0.1400,0.2800,999.3079,7.9545,1.6093,5.5052,1590579990,N
88,1967764,8.0327,1.6032,5.6064,-1.6800,-0.3500,0.1400,999.3076,7.9468,1.5971,5.5198,1590579990,N
88,1969726,8.0471,1.5505,5.5705,-0.6300,-0.3500,0.6300,999.3084,7.9539,1.5782,5.5150,1590579990,N
88,1971796,8.0662,1.6175,5.5992,-0.0700,-0.1400,0.6300,999.3093,7.9578,1.5771,5.5096,1590579990,N
88,1967576,8.0207,1.5625,5.5442,-0.5600,-0.1400,0.4900,999.3095,7.9613,1.5669,5.5076,1590579990,N
88,1965595,8.0877,1.5817,5.6231,-0.2800,0.0700,0.3500,999.3103,7.9600,1.5613,5.5110,1590579990,N
88,1966580,8.0686,1.5434,5.5992,0.5600,0.3500,0.3500,999.3106,7.9629,1.5535,5.5091,1590579990,N
87,1967463,8.0542,1.5458,5.5992,-0.2100,0.0700,0.3500,999.3110,7.9624,1.5452,5.5121,1590579990,N
88,1969183,8.0471,1.5266,5.6375,0.2800,0.0700,-0.1400,999.3112,7.9571,1.5392,5.5214,1590579991,N
88,1971475,8.0638,1.5745,5.6423,0.7000,0.5600,0.2100,999.3115,7.9540,1.5427,5.5248,1590579991,N
87,1969761,8.0734,1.5218,5.5920,0.4200,0.1400,-0.0700,999.3123,7.9571,1.5365,5.5222,1590579991,N
88,1965826,8.0806,1.6128,5.5920,0.4200,0.1400,0.0700,999.3127,7.9587,1.5480,5.5167,1590579991,N
88,1965813,8.1021,1.5386,5.6255,0.4200,0.1400,-0.0700,999.3132,7.9593,1.5427,5.5172,1590579991,N
88,1967007,8.0399,1.5817,5.6423,0.4200,0.1400,0.0700,999.3139,7.9540,1.5471,5.5237,1590579991,N
87,1968204,8.0782,1.5721,5.5394,-0.0700,0.0700,0.0700,999.3148,7.9602,1.5479,5.5145,1590579991,N
88,1970553,8.0327,1.5673,5.5298,0.2100,0.1400,-0.0700,999.3154,7.9629,1.5508,5.5099,1590579991,N
87,1972578,8.0183,1.6487,5.5992,0.2100,-0.0700,-0.0700,999.3158,7.9566,1.5678,5.5140,1590579991,N
87,1968148,8.0710,1.5888,5.5777,0.1400,-0.0700,0.3500,999.3153,7.9615,1.5661,5.5074,1590579991,N
88,1965859,8.0495,1.5601,5.6136,-0.2800,-0.0700,0.1400,999.3148,7.9583,1.5589,5.5141,1590579992,N
87,1966684,8.1236,1.5793,5.5418,-0.2800,-0.2100,-0.0700,999.3151,7.9659,1.5574,5.5036,1590579992,N
88,1967806,8.0423,1.5984,5.5753,0.0700,-0.0700,-0.1400,999.3154,7.9631,1.5632,5.5059,1590579992,N
88,1969528,8.0877,1.6271,5.5992,-0.3500,-0.0700,-0.1400,999.3162,7.9594,1.5702,5.5093,1590579992,N
88,1972045,8.0327,1.5984,5.5681,-0.6300,-0.0700,0.0700,999.3170,7.9566,1.5700,5.5134,1590579992,N
88,1973338,8.0518,1.6175,5.5537,-0.2100,-0.3500,0.0700,999.3179,7.9597,1.5746,5.5077,1590579992,N
88,1968603,8.0399,1.5553,5.6088,-0.1400,-0.2800,0.4900,999.3179,7.9609,1.5633,5.5092,1590579992,N
88,1966996,8.0518,1.6104,5.6423,-0.0700,-0.2800,-0.2100,999.3182,7.9535,1.5686,5.5183,1590579992,N
88,1968146,8.0231,1.6152,5.6327,-0.3500,-0.1400,0.2800,999.3197,7.9480,1.5707,5.5257,1590579992,N
88,1969429,8.0447,1.6223,5.5657,-0.2100,-0.4200,-0.1400,999.3208,7.9499,1.5773,5.5210,1590579993,N
88,1971287,8.0160,1.5912,5.6351,-0.4900,-0.2100,0.1400,999.3213,7.9438,1.5735,5.5308,1590579993,N
88,1973952,8.0471,1.5386,5.6207,-0.4900,-0.2800,-0.1400,999.3210,7.9420,1.5615,5.5368,1590579993,N
88,1976793,8.0710,1.5051,5.5825,-1.3300,-0.4200,-0.1400,999.3208,7.9435,1.5424,5.5400,1590579993,N
88,1973674,8.0231,1.6199,5.6423,-1.2600,-0.2100,0.5600,999.3203,7.9376,1.5454,5.5477,1590579993,N
88,1971088,8.0160,1.5458,5.5992,-0.3500,-0.0700,0.5600,999.3198,7.9412,1.5377,5.5447,1590579993,N
88,1971727,8.0782,1.5721,5.5705,-0.2800,-0.4200,-0.0700,999.3190,7.9478,1.5397,5.5346,1590579993,N
88,1972774,8.0758,1.5577,5.6160,-0.2100,-0.4900,-0.0700,999.3182,7.9499,1.5380,5.5322,1590579993,N
88,1974119,8.0877,1.5529,5.6016,-0.1400,-0.1400,0.1400,999.3168,7.9537,1.5347,5.5275,1590579993,N
88,1976358,8.1260,1.5434,5.6136,-0.1400,-0.2100,0.0700,999.3157,7.9583,1.5296,5.5223,1590579993,N
88,1979105,8.0997,1.5266,5.6471,0.2100,0.0700,0.0700,999.3152,7.9577,1.5237,5.5248,1590579993,N
88,1977763,8.0423,1.5769,5.6542,-0.0700,0.0700,0.0700,999.3145,7.9502,1.5289,5.5341,1590579994,N
88,1974498,8.0614,1.5314,5.5681,-0.2100,-0.1400,0.0700,999.3141,7.9550,1.5248,5.5284,1590579994,N
88,1974640,8.0542,1.5769,5.5848,0.0700,-0.2800,0.0700,999.3132,7.9576,1.5310,5.5230,1590579994,N
88,1975774,8.0447,1.5912,5.6064,-0.2100,-0.0700,0.0700,999.3122,7.9544,1.5378,5.5257,1590579994,N
88,1977021,8.0853,1.5745,5.6231,-0.0700,-0.0700,-0.2100,999.3107,7.9521,1.5409,5.5282,1590579994,N
88,1979210,8.0303,1.5625,5.6088,-0.3500,-0.3500,0.2100,999.3094,7.9514,1.5389,5.5297,1590579994,N
88,1981903,7.9825,1.5386,5.6901,0.5600,-0.1400,-0.0700,999.3079,7.9416,1.5377,5.5440,1590579994,N
88,1981020,8.0231,1.6152,5.5753,-0.0700,-0.0700,0.2100,999.3063,7.9440,1.5484,5.5376,1590579994,N
88,1977408,8.0136,1.5769,5.5825,-0.4900,-0.0700,0.2100,999.3048,7.9438,1.5483,5.5380,1590579994,N
88,1976961,8.0662,1.5721,5.5801,-0.2100,-0.2800,-0.2800,999.3043,7.9463,1.5499,5.5340,1590579994,N
88,1978179,8.0279,1.5721,5.6447,-0.2100,-0.2800,-0.2800,999.3043,7.9398,1.5510,5.5429,1590579995,N
88,1979362,8.0590,1.5625,5.5657,-0.2100,-0.1400,-0.0700,999.3044,7.9449,1.5494,5.5361,1590579995,N
88,1981369,8.0710,1.6128,5.6183,-0.4200,-0.1400,0.0700,999.3033,7.9439,1.5549,5.5359,1590579995,N
88,1983945,7.9753,1.5505,5.6207,0.0700,-0.1400,0.0700,999.3022,7.9400,1.5515,5.5425,1590579995,N
88,1984569,8.0614,1.5314,5.5992,-0.2100,-0.1400,0.0700,999.3005,7.9440,1.5423,5.5394,1590579995,N
88,1980562,8.0758,1.5410,5.5394,-0.2100,-0.2800,-0.2100,999.2999,7.9520,1.5392,5.5287,1590579995,N
88,1979711,8.0853,1.5625,5.5777,-0.3500,-0.5600,-0.0700,999.2991,7.9570,1.5383,5.5218,1590579995,N
88,1980692,7.9633,1.5314,5.6614,-0.4900,-0.1400,0.0700,999.2985,7.9441,1.5322,5.5421,1590579995,N
88,1981653,8.0375,1.5649,5.6327,-0.2800,-0.2800,-0.1400,999.2983,7.9407,1.5343,5.5464,1590579995,N
88,1983414,8.0518,1.5505,5.6064,-0.2800,-0.4200,-0.0700,999.2986,7.9429,1.5328,5.5436,1590579995,N
88,1985811,8.0542,1.5745,5.6375,-0.5600,-0.2800,-0.0700,999.2990,7.9395,1.5347,5.5480,1590579996,N
88,1987243,8.0566,1.5577,5.5753,-0.1400,-0.2800,0.0700,999.2994,7.9458,1.5346,5.5389,1590579996,N
88,1983429,8.0758,1.5362,5.5848,-0.4900,-0.2800,0.1400,999.3007,7.9508,1.5281,5.5335,1590579996,N
88,1982182,8.0758,1.5362,5.6016,-0.4200,-0.2800,0.1400,999.3015,7.9536,1.5228,5.5310,1590579996,N
88,1982896,8.0064,1.5482,5.6471,-0.2800,-0.3500,0.3500,999.3026,7.9492,1.5210,5.5378,1590579996,N
88,1983725,8.0495,1.5745,5.6614,-0.1400,-0.2800,0.1400,999.3046,7.9454,1.5252,5.5421,1590579996,N
88,1985278,8.0614,1.5482,5.5896,-0.4200,-0.2800,0.1400,999.3067,7.9491,1.5234,5.5373,1590579996,N
87,1987567,8.0375,1.5984,5.5992,-0.4900,-0.0700,-0.4900,999.3084,7.9423,1.5358,5.5436,1590579996,N
88,1988349,8.0207,1.4979,5.5992,0.2100,0.2100,0.2100,999.3110,7.9449,1.5251,5.5429,1590579996,N
87,1984648,8.1165,1.5314,5.5705,0.2100,-0.2100,-0.0700,999.3127,7.9553,1.5227,5.5286,1590579996,N
87,1983370,8.0542,1.5290,5.6279,-0.0700,-0.2800,0.0700,999.3148,7.9545,1.5189,5.5307,1590579997,N
87,1984052,8.0853,1.5577,5.6112,-0.2100,-0.1400,0.0700,999.3166,7.9555,1.5205,5.5289,1590579997,N
87,1984705,8.0662,1.5147,5.5896,-0.4200,-0.0700,-0.0700,999.3184,7.9557,1.5144,5.5303,1590579997,N
87,1986417,8.0351,1.5290,5.6303,-0.3500,-0.2100,0.0700,999.3193,7.9517,1.5118,5.5367,1590579997,N
87,1988584,7.9872,1.5649,5.6016,0.2800,-0.2100,0.0700,999.3201,7.9497,1.5205,5.5372,1590579997,N
87,1987869,8.0471,1.5386,5.6327,0.2800,0.1400,-0.1400,999.3212,7.9467,1.5219,5.5412,1590579997,N
87,1983979,8.1093,1.4836,5.5490,-0.3500,-0.0700,0.2100,999.3213,7.9582,1.5077,5.5284,1590579997,N
87,1982938,8.0351,1.6104,5.5585,-0.7000,-0.4900,0.5600,999.3206,7.9619,1.5189,5.5201,1590579997,N
87,1983465,8.0327,1.4764,5.6279,-0.1400,0.0700,0.7000,999.3193,7.9622,1.5022,5.5242,1590579997,N
87,1984242,8.0542,1.4859,5.5944,-0.2100,-0.0700,-0.1400,999.3182,7.9609,1.4957,5.5279,1590579998,N
87,1986012,8.0710,1.5625,5.6231,-0.2800,-0.5600,-0.4900,999.3181,7.9561,1.5060,5.5319,1590579998,N
87,1988253,8.0447,1.5745,5.6638,-0.2100,-0.2100,0.2100,999.3173,7.9502,1.5126,5.5386,1590579998,N
87,1986558,8.0518,1.5218,5.6088,-0.2800,-0.1400,-0.1400,999.3168,7.9490,1.5104,5.5409,1590579998,N
87,1983149,8.0590,1.4836,5.5825,-0.4900,-0.2800,-0.1400,999.3161,7.9516,1.5008,5.5398,1590579998,N
87,1982512,7.9992,1.5051,5.6183,-0.4200,-0.2800,-0.0700,999.3156,7.9467,1.4979,5.5476,1590579998,N
86,1983167,8.0375,1.5817,5.6088,-0.1400,-0.2800,0.2100,999.3151,7.9477,1.5088,5.5432,1590579998,N
86,1984051,8.0231,1.5673,5.6375,-0.1400,-0.2100,-0.2100,999.3148,7.9418,1.5173,5.5494,1590579998,N
86,1985975,8.0375,1.5266,5.5729,-0.5600,-0.1400,-0.2100,999.3133,7.9427,1.5156,5.5486,1590579998,N
86,1988190,8.0997,1.5505,5.6518,-0.5600,-0.2100,0.1400,999.3114,7.9429,1.5136,5.5489,1590579998,N
86,1987479,8.0877,1.5075,5.6016,-0.5600,-0.2800,0.0700,999.3103,7.9476,1.5054,5.5444,1590579998,N
86,1983763,8.0710,1.5027,5.6207,-0.4900,-0.2800,0.0700,999.3101,7.9489,1.4982,5.5444,1590579999,N
86,1983125,8.0758,1.5314,5.6112,-0.2800,-0.5600,-0.2800,999.3100,7.9503,1.5008,5.5417,1590579999,N
86,1983614,8.0279,1.5051,5.5513,-0.4200,-0.2100,-0.1400,999.3095,7.9528,1.4988,5.5386,1590579999,N
86,1984278,8.0734,1.5529,5.6471,-0.2800,-0.0700,0.1400,999.3091,7.9500,1.5025,5.5416,1590579999,N
86,1985761,8.0064,1.5410,5.6495,-0.0700,-0.2800,-0.1400,999.3091,7.9433,1.5072,5.5501,1590579999,N
86,1987859,8.0303,1.4357,5.5753,0.0700,-0.0700,-0.1400,999.3101,7.9482,1.4918,5.5472,1590579999,N
86,1987695,8.0901,1.4405,5.5777,0.0700,0.2100,-0.1400,999.3101,7.9543,1.4792,5.5418,1590579999,N
86,1983827,8.0853,1.5242,5.5609,-0.0700,0.1400,0.2100,999.3115,7.9609,1.4829,5.5313,1590579999,N
86,1982806,8.0949,1.5003,5.6495,-0.1400,-0.2800,0.0700,999.3127,7.9602,1.4799,5.5331,1590579999,N
86,1983281,8.0447,1.5027,5.6303,-0.2100,-0.0700,0.0700,999.3142,7.9565,1.4794,5.5385,1590579999,N
86,1983869,8.0614,1.5458,5.5585,-0.2800,-0.1400,0.0700,999.3156,7.9603,1.4879,5.5309,1590580000,N
86,1985357,8.0016,1.5099,5.5585,0.0700,-0.2800,-0.0700,999.3176,7.9613,1.4912,5.5285,1590580000,N
86,1987577,8.0327,1.5194,5.7045,0.0700,0.0700,0.2800,999.3187,7.9516,1.4905,5.5427,1590580000,N
86,1986557,8.0901,1.5290,5.6112,0.1400,-0.2100,-0.1400,999.3192,7.9545,1.4947,5.5374,1590580000,N
86,1982827,8.0279,1.5314,5.6351,-0.2800,-0.0700,0.2100,999.3201,7.9504,1.4959,5.5429,1590580000,N
86,1981695,8.0016,1.4931,5.6160,-0.4200,-0.3500,-0.2800,999.3206,7.9452,1.4930,5.5512,1590580000,N
86,1982149,8.0590,1.5338,5.5968,-0.3500,-0.2800,0.1400,999.3206,7.9488,1.4950,5.5455,1590580000,N
86,1982846,8.1045,1.4883,5.6207,-0.3500,-0.2100,-0.2100,999.3209,7.9506,1.4886,5.5445,1590580000,N
86,1984494,8.0542,1.5553,5.6542,-0.0700,-0.0700,0.1400,999.3209,7.9472,1.4959,5.5475,1590580000,N
86,1986560,8.0542,1.4931,5.6399,-0.2800,-0.2100,0.0700,999.3195,7.9465,1.4897,5.5501,1590580000,N
86,1986790,8.0518,1.5170,5.5729,0.3500,0.1400,-0.3500,999.3189,7.9492,1.4955,5.5448,1590580001,N
86,1982938,8.1045,1.4907,5.5705,-0.5600,0.1400,0.2800,999.3188,7.9563,1.4867,5.5369,1590580001,N
86,1981474,8.0710,1.5147,5.6207,-0.2100,0.1400,-0.4900,999.3185,7.9505,1.4903,5.5443,1590580001,N
85,1982159,7.9801,1.4931,5.5561,-0.2800,-0.2800,0.3500,999.3179,7.9542,1.4866,5.5399,1590580001,N
86,1983091,8.1093,1.5123,5.6614,-0.2800,-0.2800,-0.3500,999.3170,7.9507,1.4868,5.5450,1590580001,N
86,1984669,8.0997,1.5242,5.6279,-0.3500,-0.2800,-0.3500,999.3162,7.9497,1.4897,5.5456,1590580001,N
86,1986927,8.0375,1.5290,5.6255,-0.3500,-0.4200,-0.0700,999.3155,7.9476,1.4928,5.5478,1590580001,N
85,1989290,8.0997,1.4740,5.6112,-0.3500,-0.4900,-0.2100,999.3149,7.9520,1.4842,5.5438,1590580001,N
86,1987832,8.0112,1.4812,5.7500,-0.4200,-0.2800,0.2100,999.3148,7.9386,1.4758,5.5651,1590580001,N
85,1984915,8.0806,1.5314,5.6423,-0.4900,-0.2100,-0.4200,999.3147,7.9357,1.4826,5.5675,1590580001,N
85,1984288,8.0853,1.5505,5.5729,-0.4200,-0.3500,0.0700,999.3134,7.9444,1.4899,5.5531,1590580002,N
85,1985093,8.0255,1.4859,5.6949,-0.2100,-0.2800,0.0700,999.3117,7.9382,1.4834,5.5637,1590580002,N
85,1985960,8.0399,1.5314,5.6375,-0.2100,-0.0700,-0.2800,999.3110,7.9346,1.4899,5.5670,1590580002,N
85,1987888,8.0279,1.5290,5.5848,0.0700,-0.2800,-0.2800,999.3102,7.9382,1.4968,5.5601,1590580002,N
85,1990021,7.9992,1.4812,5.6853,-0.4200,-0.0700,-0.3500,999.3103,7.9272,1.4908,5.5774,1590580002,N
85,1991236,8.0710,1.5386,5.5896,-0.1400,0.2100,0.0700,999.3099,7.9337,1.4955,5.5669,1590580002,N
85,1987418,8.0973,1.4859,5.5681,-0.1400,-0.2100,-0.0700,999.3115,7.9449,1.4895,5.5526,1590580002,N
85,1986153,8.0016,1.5290,5.7141,0.0700,-0.3500,-0.0700,999.3143,7.9347,1.4935,5.5660,1590580002,N
85,1986838,8.0351,1.5051,5.5896,-0.4900,-0.3500,0.0700,999.3167,7.9393,1.4905,5.5602,1590580002,N
85,1987695,8.0853,1.5505,5.5681,0.0700,-0.4200,-0.1400,999.3185,7.9487,1.4994,5.5445,1590580003,N
85,1989383,8.0351,1.5482,5.6734,-0.2800,-0.2800,0.0700,999.3195,7.9424,1.5029,5.5525,1590580003,N
85,1991588,8.0303,1.4836,5.6040,-0.1400,-0.2800,-0.3500,999.3210,7.9424,1.4976,5.5539,1590580003,N
85,1993694,8.0495,1.5170,5.5322,-0.3500,-0.4200,-0.0700,999.3216,7.9514,1.4981,5.5409,1590580003,N
85,1990614,8.0136,1.5840,5.6327,-0.2100,-0.2800,0.2100,999.3219,7.9473,1.5094,5.5437,1590580003,N
85,1988517,8.0662,1.5075,5.5872,-0.5600,-0.2100,0.1400,999.3219,7.9511,1.5024,5.5401,1590580003,N
85,1988859,8.0853,1.5577,5.6136,0.4900,-0.2100,-0.0700,999.3210,7.9549,1.5106,5.5324,1590580003,N
85,1989558,8.0638,1.5601,5.5298,-0.7700,-0.2100,0.2100,999.3212,7.9607,1.5133,5.5233,1590580003,N
85,1990992,8.0877,1.4883,5.5896,-0.4900,-0.2100,-0.0700,999.3207,7.9623,1.5028,5.5239,1590580003,N
85,1993097,8.0710,1.5338,5.5633,-0.1400,-0.3500,0.0700,999.3202,7.9671,1.5043,5.5166,1590580003,N
85,1995340,8.0495,1.5051,5.5705,-0.6300,-0.4900,-0.2100,999.3207,7.9660,1.5003,5.5193,1590580003,N
85,1993311,8.0351,1.5003,5.6160,-0.8400,-0.4200,0.1400,999.3206,7.9614,1.4929,5.5278,1590580004,N
85,1991057,8.0614,1.5697,5.6088,-0.3500,-0.2800,0.7700,999.3204,7.9647,1.4977,5.5219,1590580004,N
84,1991271,8.0518,1.3878,5.5729,-0.3500,-0.3500,0.7700,999.3203,7.9746,1.4671,5.5158,1590580004,N
85,1992130,8.0614,1.5625,5.3862,-0.9100,-1.5400,-3.1500,999.3196,7.9710,1.5017,5.5117,1590580004,N
85,1993389,8.0471,1.6869,5.6351,-0.3500,-0.2800,0.9100,999.3190,7.9671,1.5261,5.5106,1590580004,N
85,1995217,8.0901,1.4453,5.5729,-1.8200,-0.6300,2.7300,999.3193,7.9872,1.4823,5.4935,1590580004,N
84,1997727,8.1332,1.4692,5.4987,0.4200,-0.7000,-0.7000,999.3202,7.9969,1.4817,5.4795,1590580004,N
84,1996391,8.0088,1.5123,5.6590,-0.5600,-0.2800,0.2100,999.3209,7.9813,1.4809,5.5024,1590580004,N
84,1993945,8.0207,1.4931,5.6183,-0.6300,0.3500,0.1400,999.3205,7.9696,1.4774,5.5202,1590580004,N
84,1993979,8.0925,1.4788,5.5442,0.2800,-0.1400,-0.3500,999.3201,7.9750,1.4774,5.5125,1590580004,N
84,1994768,8.0877,1.4812,5.5585,-0.1400,-0.1400,0.4900,999.3203,7.9821,1.4710,5.5039,1590580005,N
84,1995638,8.0614,1.4668,5.6303,0.1400,-0.1400,-0.4900,999.3198,7.9737,1.4697,5.5164,1590580005,N
84,1997466,8.0423,1.5458,5.5944,-0.0700,-0.1400,0.3500,999.3196,7.9724,1.4789,5.5157,1590580005,N
84,1999547,8.0806,1.4859,5.5801,-0.0700,-0.0700,-0.0700,999.3195,7.9732,1.4767,5.5152,1590580005,N
84,1996473,8.0351,1.5099,5.5992,-0.1400,-0.0700,-0.0700,999.3191,7.9682,1.4801,5.5215,1590580005,N
84,1994199,8.0710,1.5123,5.5705,-0.1400,-0.2100,0.0700,999.3189,7.9709,1.4820,5.5171,1590580005,N
84,1994271,8.0614,1.4716,5.6088,-0.1400,-0.0700,0.0700,999.3196,7.9692,1.4753,5.5214,1590580005,N
84,1994948,8.0758,1.5362,5.5753,-0.3500,-0.3500,0.0700,999.3204,7.9709,1.4817,5.5173,1590580005,N
84,1995991,8.0877,1.4381,5.6614,-0.4200,-0.3500,0.0700,999.3214,7.9673,1.4660,5.5267,1590580005,N
84,1997818,8.0734,1.5482,5.5633,-0.3500,-0.2800,-0.6300,999.3232,7.9644,1.4813,5.5268,1590580005,N
84,1999485,8.0518,1.5218,5.5609,0.1400,-0.0700,-0.0700,999.3256,7.9667,1.4873,5.5218,1590580006,N
84,1996003,8.1356,1.5170,5.5777,-0.3500,-0.4900,-0.2100,999.3279,7.9717,1.4878,5.5144,1590580006,N
84,1994129,8.0327,1.5529,5.6471,-0.2800,-0.0700,0.3500,999.3301,7.9639,1.4934,5.5241,1590580006,N
84,1994599,8.0925,1.5386,5.5920,-0.0700,-0.4900,-0.6300,999.3326,7.9629,1.5013,5.5234,1590580006,N
84,1995150,7.9968,1.4548,5.8170,1.8900,-2.3100,-1.3300,999.3348,7.9507,1.5007,5.5412,1590580006,N
84,1996442,8.1212,1.6965,5.2187,0.4200,-0.7000,0.0700,999.3359,7.9945,1.5415,5.4665,1590580006,N
84,1998789,8.0542,1.5123,5.6471,-1.4700,0.0700,1.2600,999.3365,7.9857,1.5181,5.4858,1590580006,N
84,2000935,8.0279,1.4429,5.5490,-1.1900,0.0700,-0.3500,999.3366,7.9766,1.4994,5.5041,1590580006,N
84,1998302,8.1212,1.5434,5.5370,-0.4900,-0.3500,-0.3500,999.3367,7.9794,1.5040,5.4988,1590580006,N
84,1995720,8.0518,1.4477,5.5920,-1.1200,-0.0700,0.7000,999.3370,7.9779,1.4813,5.5072,1590580006,N
84,1995372,8.0518,1.5051,5.5633,-0.3500,-0.4200,-0.0700,999.3367,7.9773,1.4822,5.5078,1590580007,N
84,1995790,8.0758,1.4453,5.6447,-0.7000,-0.3500,0.2100,999.3356,7.9728,1.4664,5.5186,1590580007,N
84,1996387,8.0877,1.4548,5.5753,-0.7000,-0.0700,0.2100,999.3351,7.9744,1.4566,5.5188,1590580007,N
84,1998167,8.0064,1.5099,5.5825,-0.4900,-0.0700,-0.0700,999.3354,7.9672,1.4638,5.5274,1590580007,N
84,1999904,8.0830,1.5266,5.5322,0.7000,0.0700,0.1400,999.3356,7.9769,1.4748,5.5104,1590580007,N
84,1998597,8.1093,1.5170,5.6686,-0.1400,0.2100,-0.0700,999.3353,7.9682,1.4771,5.5223,1590580007,N
84,1995165,8.0830,1.5482,5.5681,0.0700,0.2100,0.1400,999.3348,7.9704,1.4868,5.5166,1590580007,N
84,1994479,8.0901,1.5242,5.5370,-0.0700,-0.4900,-0.1400,999.3348,7.9769,1.4911,5.5060,1590580007,N
84,1994873,8.0255,1.5242,5.6279,-0.4900,-0.2100,0.7000,999.3339,7.9725,1.4880,5.5132,1590580007,N
84,1995599,8.0710,1.4931,5.5944,-0.4900,-0.2100,0.3500,999.3325,7.9732,1.4812,5.5140,1590580007,N
84,1997122,8.0758,1.4883,5.5585,-0.2800,-0.4900,-0.2800,999.3312,7.9751,1.4798,5.5116,1590580008,N
84,1999281,8.0638,1.4955,5.6279,-0.2100,-0.4900,0.0700,999.3298,7.9723,1.4773,5.5163,1590580008,N
84,1999596,8.0949,1.5051,5.5753,-0.0700,-0.0700,0.1400,999.3286,7.9756,1.4776,5.5115,1590580008,N
84,1995583,8.0949,1.5482,5.5801,-0.0700,0.0700,0.4900,999.3270,7.9787,1.4838,5.5053,1590580008,N
84,1993920,8.0471,1.4524,5.6471,-0.0700,-0.3500,-0.1400,999.3251,7.9718,1.4742,5.5179,1590580008,N
84,1994530,7.9944,1.5170,5.6016,0.1400,-0.0700,0.4200,999.3238,7.9688,1.4784,5.5212,1590580008,N
84,1994942,8.0542,1.4764,5.6255,-0.7000,0.3500,0.8400,999.3228,7.9666,1.4666,5.5275,1590580008,N
84,1996172,8.0662,1.4644,5.5920,-0.8400,0.2100,2.4500,999.3204,7.9813,1.4444,5.5121,1590580008,N
84,1998222,8.0614,1.3687,5.6255,-2.1700,-0.1400,1.4700,999.3182,7.9807,1.4089,5.5222,1590580008,N
83,2000631,8.0590,1.3950,5.6423,-0.3500,0.2100,1.3300,999.3168,7.9831,1.3930,5.5226,1590580008,N
84,1999676,8.1069,1.3974,5.5992,-1.0500,0.2800,1.8200,999.3152,7.9924,1.3748,5.5137,1590580009,N
84,1996703,8.0901,1.3902,5.6088,-2.1000,0.4200,3.0800,999.3128,8.0026,1.3474,5.5057,1590580009,N
83,1996322,8.0806,1.1797,5.6901,-3.5700,-0.1400,2.5900,999.3119,8.0003,1.2814,5.5248,1590580009,N
84,1996951,8.0423,1.1701,5.6830,-1.5400,-0.1400,1.6100,999.3115,7.9982,1.2409,5.5371,1590580009,N
83,1997712,8.0638,1.1198,5.6614,-1.2600,-0.1400,1.1200,999.3115,7.9980,1.2026,5.5458,1590580009,N
84,1999427,8.1212,1.1318,5.6949,-1.3300,-0.2800,1.2600,999.3119,7.9998,1.1717,5.5499,1590580009,N
83,2001240,8.0806,1.0839,5.6973,-1.1900,-0.1400,1.0500,999.3126,7.9974,1.1403,5.5599,1590580009,N
84,2003548,8.1165,1.0983,5.6303,-0.7000,-0.3500,0.4200,999.3126,8.0014,1.1237,5.5575,1590580009,N
83,2001976,8.0662,1.0528,5.6830,-0.4900,-0.2100,0.2100,999.3125,7.9959,1.1039,5.5693,1590580009,N
84,1999274,8.1045,1.0911,5.7212,-0.4900,0.2100,-0.0700,999.3120,7.9848,1.0964,5.5868,1590580009,N
83,1999197,8.1021,1.0792,5.6662,0.0700,-0.1400,0.3500,999.3116,7.9902,1.0879,5.5807,1590580010,N
84,1999667,8.0566,1.0146,5.7021,0.2100,-0.1400,-0.0700,999.3115,7.9863,1.0720,5.5893,1590580010,N
83,2000259,8.0590,1.1007,5.6399,0.0700,0.0700,0.0700,999.3113,7.9867,1.0756,5.5880,1590580010,N
83,2001949,8.1452,1.1007,5.7141,0.0700,-0.2100,0.0700,999.3110,7.9875,1.0758,5.5868,1590580010,N
83,2003975,8.1380,1.1151,5.6877,0.1400,-0.2800,0.0700,999.3095,7.9906,1.0795,5.5817,1590580010,N
83,2002416,7.9968,1.0696,5.8193,0.2800,-0.1400,0.1400,999.3083,7.9735,1.0747,5.6071,1590580010,N
83,1999276,8.1643,1.0528,5.6016,-0.5600,0.2100,-0.1400,999.3075,7.9810,1.0661,5.5980,1590580010,N
83,1998930,8.1021,1.1270,5.7332,-0.2100,-0.2800,-0.2100,999.3068,7.9736,1.0747,5.6068,1590580010,N
83,1999429,8.1165,1.1079,5.6853,-0.4200,-0.1400,-0.2100,999.3070,7.9714,1.0774,5.6095,1590580010,N
83,2000155,8.0973,1.0481,5.7212,-0.2100,-0.0700,0.1400,999.3080,7.9705,1.0665,5.6128,1590580010,N
83,2001630,8.0566,1.1246,5.7308,-0.2100,-0.4200,-0.0700,999.3098,7.9646,1.0744,5.6197,1590580011,N
83,2003423,8.1356,1.0983,5.6734,-0.5600,-0.2800,-0.0700,999.3117,7.9679,1.0737,5.6151,1590580011,N
83,1999772,8.0806,1.1055,5.6782,-0.2800,-0.2800,-0.1400,999.3135,7.9675,1.0769,5.6151,1590580011,N
83,1998315,8.1021,1.1127,5.6949,-0.5600,-0.1400,-0.1400,999.3148,7.9644,1.0793,5.6191,1590580011,N
83,1998806,8.0830,1.0887,5.6782,-0.4200,-0.3500,-0.1400,999.3163,7.9645,1.0776,5.6192,1590580011,N
83,1999265,8.1236,1.0337,5.6686,-0.3500,-0.2800,-0.1400,999.3179,7.9691,1.0652,5.6151,1590580011,N
83,2000574,8.0040,1.1366,5.7141,0.2100,-0.2800,0.0700,999.3187,7.9646,1.0775,5.6192,1590580011,N
83,2002686,8.0734,1.0792,5.7093,-0.1400,-0.2100,0.0700,999.3184,7.9644,1.0738,5.6200,1590580011,N
83,2003372,8.0925,1.0863,5.6566,0.0700,-0.7000,-0.5600,999.3181,7.9681,1.0770,5.6142,1590580011,N
83,2000595,8.1691,1.0863,5.7236,0.5600,0.2100,-0.9100,999.3179,7.9649,1.0817,5.6179,1590580011,N
83,1999966,8.0495,1.1749,5.6686,3.1500,-0.7000,-0.6300,999.3173,7.9814,1.1127,5.5883,1590580012,N
83,2001621,8.0806,1.0361,5.6375,-1.7500,0.9800,2.2400,999.3172,7.9907,1.0754,5.5823,1590580012,N
82,2002114,8.1117,1.0576,5.6758,-2.0300,-0.2100,0.9800,999.3170,7.9885,1.0552,5.5893,1590580012,N
82,2003144,8.1141,1.0863,5.7380,-0.9800,-0.3500,0.2800,999.3160,7.9811,1.0520,5.6006,1590580012,N
82,2004681,8.0662,0.8925,5.6973,-1.0500,-0.2100,0.2100,999.3160,7.9768,1.0130,5.6138,1590580012,N
82,2002865,8.0183,1.0911,5.7404,0.7700,0.4900,0.2800,999.3160,7.9720,1.0272,5.6181,1590580012,N
82,1999576,8.0231,1.1198,5.5944,0.5600,0.5600,0.0700,999.3167,7.9775,1.0467,5.6066,1590580012,N
82,1999164,8.0806,1.1366,5.8217,1.6800,-0.8400,-1.4700,999.3179,7.9635,1.0746,5.6212,1590580012,N
82,2000510,8.1260,1.2538,5.6136,0.7700,0.4900,1.9600,999.3182,7.9932,1.0974,5.5744,1590580012,N
82,2002164,8.0112,1.0983,5.7117,-4.1300,0.7700,0.9800,999.3190,7.9618,1.0750,5.6236,1590580012,N
82,2003715,8.0686,1.1127,5.7954,-1.7500,-0.1400,0.8400,999.3196,7.9504,1.0668,5.6413,1590580013,N
82,2004921,8.1523,0.9715,5.7093,2.1700,-0.2100,-2.8000,999.3208,7.9464,1.0690,5.6465,1590580013,N
82,2000635,8.0686,1.1653,5.7141,1.4700,-0.9800,-3.7100,999.3213,7.9255,1.1126,5.6674,1590580013,N
82,1997820,8.0734,1.1438,5.6590,0.7700,-0.7000,-1.0500,999.3223,7.9345,1.1252,5.6522,1590580013,N
82,1997458,8.0806,1.1868,5.6686,0.7700,-0.3500,-0.3500,999.3238,7.9454,1.1391,5.6341,1590580013,N
82,1997338,8.0997,1.0816,5.7284,1.7500,-0.4200,-0.4200,999.3250,7.9570,1.1326,5.6190,1590580013,N
82,1997626,8.0255,1.1127,5.8026,1.2600,0.5600,-3.7800,999.3262,7.9145,1.1532,5.6746,1590580013,N
83,1999163,7.9346,1.7563,5.8122,7.1400,-0.3500,-5.6700,999.3281,7.8841,1.3275,5.6788,1590580013,N
82,1999798,8.0710,1.5721,5.5753,-1.8900,-2.2400,1.3300,999.3293,7.9158,1.3565,5.6276,1590580013,N
83,1997072,8.0303,1.7611,5.9414,-6.2300,-2.8000,5.2500,999.3295,7.9111,1.3691,5.6311,1590580013,N
83,1997437,8.1906,1.5338,5.5131,-5.7400,0.1400,7.0000,999.3297,7.9658,1.3326,5.5625,1590580014,N
83,1998875,8.0136,0.7585,5.6183,-11.2700,0.0700,6.3000,999.3307,7.9677,1.1378,5.6028,1590580014,N
83,1999378,8.1930,0.7155,5.8026,-6.7200,-1.0500,0.0700,999.3303,7.9317,1.0245,5.6752,1590580014,N
83,2000197,7.9872,0.7633,5.5202,2.4500,-2.8000,-2.3800,999.3284,7.9590,0.9960,5.6421,1590580014,N
83,2002579,8.0997,0.8997,5.7739,-6.1600,-0.8400,2.0300,999.3278,7.9368,0.9386,5.6830,1590580014,N
83,2005938,8.1619,0.8136,5.7069,-21.0700,-2.1000,-1.0500,999.3276,7.7523,0.8372,5.9474,1590580014,N
83,2007319,8.2026,0.8877,5.6518,6.6500,1.5400,-3.6400,999.3273,7.8295,0.8921,5.8373,1590580014,N
83,2003419,8.1380,0.4044,5.4341,4.1300,0.7700,-1.8900,999.3275,7.8879,0.8217,5.7686,1590580014,N
83,2001593,8.1547,0.5025,5.5370,25.5500,2.1700,-1.8900,999.3275,8.1042,0.8594,5.4547,1590580014,N
83,2002629,8.1356,1.8042,5.9390,-4.9700,1.2600,-0.9100,999.3290,7.9848,1.0211,5.6009,1590580014,N
84,2003225,8.1356,1.0552,5.5226,-4.0600,0.4900,4.0600,999.3306,8.0144,0.9866,5.5648,1590580015,N
84,2004228,8.0782,1.2873,5.7595,-2.5200,0.2100,0.2100,999.3315,7.9789,1.0314,5.6074,1590580015,N
84,2005867,8.1260,1.2610,5.6471,-5.1100,-1.6100,2.1000,999.3326,7.9778,1.0412,5.6073,1590580015,N
84,2007668,8.1476,1.1007,5.6016,-0.0700,-0.5600,0.8400,999.3338,7.9997,1.0444,5.5753,1590580015,N
84,2004940,8.0662,1.0433,5.7117,0.4200,0.3500,0.5600,999.3354,7.9982,1.0395,5.5784,1590580015,N
84,2001869,8.1500,1.1462,5.6160,0.4200,-0.2800,-0.0700,999.3371,8.0065,1.0591,5.5628,1590580015,N
84,2001366,8.1308,1.2251,5.6925,0.6300,-0.2800,0.1400,999.3381,8.0064,1.0887,5.5572,1590580015,N
84,2001751,8.1763,1.0839,5.5944,-0.4200,-0.1400,1.3300,999.3393,8.0253,1.0744,5.5327,1590580015,N
84,2002705,8.1045,1.0792,5.7188,1.0500,-0.5600,0.7700,999.3403,8.0304,1.0703,5.5261,1590580015,N
84,2004629,8.1069,1.0911,5.5968,-0.2100,-0.1400,0.0700,999.3401,8.0286,1.0709,5.5285,1590580016,N
84,2006833,8.0925,1.0959,5.6638,-0.5600,-0.1400,0.3500,999.3399,8.0207,1.0688,5.5404,1590580016,N
84,2006065,8.0758,1.0935,5.5825,-0.4200,-0.2100,0.1400,999.3391,8.0199,1.0698,5.5414,1590580016,N
84,2002869,8.0997,1.0624,5.6949,-0.4200,-0.3500,0.2800,999.3386,8.0133,1.0617,5.5524,1590580016,N
84,2002516,8.1452,1.1151,5.6638,-0.4900,-0.2800,0.3500,999.3383,8.0127,1.0644,5.5528,1590580016,N
84,2003470,8.1308,0.9571,5.6279,-0.5600,-0.3500,0.2100,999.3379,8.0158,1.0370,5.5535,1590580016,N
84,2004438,8.1308,1.0385,5.6638,-0.5600,-0.3500,0.1400,999.3372,8.0129,1.0311,5.5588,1590580016,N
84,2006243,8.1045,1.0050,5.6279,-0.7000,-0.3500,-0.1400,999.3370,8.0088,1.0219,5.5664,1590580016,N
84,2008491,8.1045,1.0074,5.6183,-0.7000,-0.5600,0.0700,999.3363,8.0096,1.0138,5.5668,1590580016,N
84,2010652,8.1715,1.0481,5.6040,-0.1400,-0.2100,0.1400,999.3354,8.0179,1.0159,5.5544,1590580016,N
84,2012017,8.1452,1.0576,5.6016,-0.1400,-0.3500,-0.4900,999.3344,8.0172,1.0238,5.5540,1590580016,N
84,2008912,8.0710,1.0552,5.6303,-0.7700,-0.4900,-0.4900,999.3340,8.0057,1.0284,5.5696,1590580017,N
83,2008532,8.1141,1.0361,5.6686,-0.1400,0.2100,0.3500,999.3337,8.0052,1.0243,5.5712,1590580017,N
84,2009524,8.1356,1.0289,5.6303,0.0700,0.2100,0.3500,999.3329,8.0112,1.0204,5.5632,1590580017,N
84,2010106,8.1069,1.0002,5.6351,0.3500,0.2100,0.0700,999.3325,8.0132,1.0149,5.5614,1590580017,N
84,2011702,8.0806,1.0433,5.6734,-0.0700,0.1400,0.1400,999.3314,8.0071,1.0169,5.5698,1590580017,N
83,2013707,8.1906,0.9835,5.6877,0.0700,0.1400,0.1400,999.3299,8.0101,1.0054,5.5676,1590580017,N
84,2016087,8.1595,1.0839,5.5968,-1.2600,0.2800,2.1700,999.3284,8.0287,1.0000,5.5417,1590580017,N
83,2015128,8.1021,0.9236,5.6590,-0.3500,0.0700,0.9800,999.3265,8.0319,0.9751,5.5414,1590580017,N
84,2012157,8.0853,0.9763,5.6853,-0.3500,-0.2100,-0.4200,999.3251,8.0165,0.9743,5.5638,1590580017,N
83,2011739,8.1093,0.9978,5.6638,-0.3500,-0.1400,0.3500,999.3232,8.0151,0.9728,5.5661,1590580017,N
84,2012608,8.1260,0.9428,5.6423,-0.2100,-0.1400,0.0700,999.3217,8.0160,0.9631,5.5666,1590580018,N
83,2013343,8.1093,1.0169,5.6447,-0.1400,-0.2800,0.0700,999.3201,8.0153,0.9702,5.5663,1590580018,N
83,2014988,8.1715,1.0241,5.6710,-0.4200,-0.1400,0.3500,999.3190,8.0166,0.9734,5.5638,1590580018,N
83,2017134,8.1619,0.9356,5.7093,-0.1400,-0.2100,0.3500,999.3186,8.0174,0.9594,5.5651,1590580018,N
83,2019217,8.0949,0.9380,5.6782,0.2100,-0.2100,0.2100,999.3186,8.0174,0.9521,5.5664,1590580018,N
83,2016175,8.0925,0.9691,5.7523,-0.1400,-0.1400,0.1400,999.3186,8.0064,0.9508,5.5825,1590580018,N
83,2014179,8.0758,0.9739,5.5992,-0.3500,-0.2100,-0.2100,999.3186,8.0054,0.9541,5.5833,1590580018,N
83,2014555,8.1045,1.0098,5.6662,-0.6300,-0.2800,0.1400,999.3177,8.0020,0.9593,5.5873,1590580018,N
83,2015165,8.0423,0.9691,5.6542,-0.2800,-0.2800,-0.2800,999.3170,7.9948,0.9605,5.5975,1590580018,N
83,2016252,8.0806,0.9954,5.6590,-0.4900,-0.2800,-0.0700,999.3171,7.9915,0.9640,5.6015,1590580018,N
83,2017882,8.0949,0.9619,5.6207,-0.2100,-0.4200,-0.2800,999.3173,7.9943,0.9626,5.5978,1590580019,N
82,2019826,8.1523,1.0026,5.6327,-0.4900,-0.2800,-0.0700,999.3179,7.9983,0.9661,5.5915,1590580019,N
83,2021934,8.1165,0.9739,5.6997,-0.9100,-0.2800,0.2100,999.3177,7.9933,0.9600,5.5997,1590580019,N
83,2020678,8.0925,0.9260,5.6495,-0.1400,-0.0700,-0.2100,999.3170,7.9928,0.9520,5.6018,1590580019,N
82,2017814,8.1308,0.9380,5.5968,-0.4900,-0.6300,0.2100,999.3171,8.0046,0.9439,5.5862,1590580019,N
82,2017906,8.0853,0.9906,5.6590,-0.0700,-0.3500,-0.0700,999.3167,8.0031,0.9511,5.5871,1590580019,N
82,2018322,8.0901,0.9978,5.6351,-0.3500,0.1400,0.2800,999.3165,8.0036,0.9554,5.5857,1590580019,N
82,2018609,8.1284,0.9835,5.6590,0.1400,-0.0700,-0.0700,999.3168,8.0053,0.9590,5.5826,1590580019,N
82,2019984,8.1595,0.9835,5.7212,0.3500,0.0700,0.0700,999.3179,8.0052,0.9607,5.5824,1590580019,N
82,2021690,8.1428,0.9476,5.7141,0.2800,0.0700,0.0700,999.3193,8.0048,0.9551,5.5840,1590580019,N
82,2022475,8.1260,0.9835,5.6662,0.1400,0.0700,0.0700,999.3206,8.0062,0.9579,5.5815,1590580020,N
82,2018368,8.1476,0.9571,5.7093,-0.2800,-0.2100,0.0700,999.3215,8.0037,0.9527,5.5860,1590580020,N
82,2016727,8.1260,0.9691,5.7356,-0.2100,-0.0700,-0.0700,999.3214,7.9959,0.9520,5.5973,1590580020,N
82,2017106,8.1212,1.0193,5.6734,-0.1400,-0.2100,-0.1400,999.3214,7.9948,0.9627,5.5971,1590580020,N
82,2017259,8.0853,0.9380,5.6853,-0.1400,-0.2100,0.1400,999.3206,7.9947,0.9540,5.5987,1590580020,N
82,2018255,8.1165,0.9500,5.6351,-0.2100,-0.0700,0.0700,999.3195,7.9991,0.9497,5.5931,1590580020,N
81,2019935,8.1547,0.9978,5.7069,-0.0700,-0.2100,0.0700,999.3185,7.9995,0.9546,5.5916,1590580020,N
82,2021552,8.0925,0.9619,5.7188,0.4200,-0.1400,0.1400,999.3182,7.9992,0.9538,5.5923,1590580020,N
81,2017583,8.0925,0.9858,5.7523,0.0700,-0.1400,-0.2800,999.3192,7.9883,0.9588,5.6070,1590580020,N
81,2014826,8.1476,0.9667,5.6662,0.0700,-0.1400,0.0700,999.3199,7.9953,0.9569,5.5973,1590580020,N
81,2014857,8.1547,1.0265,5.6853,-0.2100,-0.5600,-0.1400,999.3207,7.9966,0.9670,5.5937,1590580021,N
81,2014991,8.0901,0.9715,5.6351,-0.7700,-0.2100,0.1400,999.3215,7.9961,0.9622,5.5952,1590580021,N
81,2015667,8.0590,0.9930,5.6375,-0.4900,-0.4900,-0.0700,999.3220,7.9943,0.9654,5.5973,1590580021,N
81,2017251,8.1141,1.0098,5.6877,-0.4900,-0.3500,0.3500,999.3235,7.9954,0.9671,5.5954,1590580021,N
81,2019163,8.1380,1.0074,5.7165,-0.8400,-0.3500,0.2100,999.3250,7.9913,0.9670,5.6013,1590580021,N
81,2017508,8.1021,0.8518,5.6255,-0.9800,0.2100,0.9100,999.3257,7.9997,0.9332,5.5951,1590580021,N
81,2014029,8.1045,0.9978,5.6542,-0.9800,-0.5600,0.9100,999.3271,8.0061,0.9343,5.5856,1590580021,N
81,2013682,8.1141,0.8734,5.7021,-0.3500,-0.5600,-0.2100,999.3286,8.0015,0.9194,5.5948,1590580021,N
80,2014010,8.1476,0.9428,5.6542,-0.6300,-0.0700,0.2100,999.3297,8.0034,0.9176,5.5924,1590580021,N
81,2014361,8.1476,0.9117,5.6423,-0.4200,-0.0700,0.4900,999.3293,8.0111,0.9092,5.5826,1590580021,N
80,2015759,8.1380,0.9045,5.7069,0.2100,-0.0700,0.0700,999.3292,8.0109,0.9054,5.5836,1590580022,N
80,2017595,8.1547,0.9141,5.6255,0.2800,0.0700,0.2800,999.3279,8.0212,0.9037,5.5690,1590580022,N
80,2017728,8.1236,0.8710,5.6471,-1.1200,0.2100,0.7000,999.3267,8.0198,0.8867,5.5737,1590580022,N
80,2013718,8.0925,0.7968,5.6830,-0.3500,0.2100,1.2600,999.3256,8.0272,0.8578,5.5676,1590580022,N
80,2013058,8.0686,0.8279,5.6949,-0.2100,0.2100,0.0700,999.3237,8.0169,0.8490,5.5838,1590580022,N
80,2013811,8.0901,0.9045,5.6710,0.0700,-0.2100,-0.6300,999.3221,8.0069,0.8622,5.5961,1590580022,N
80,2014434,8.0806,0.9571,5.6160,0.4900,-0.8400,-0.4900,999.3206,8.0110,0.8842,5.5868,1590580022,N
80,2015748,8.0662,0.8399,5.6925,-0.5600,0.1400,0.4200,999.3198,8.0055,0.8690,5.5970,1590580022,N
80,2017706,8.1763,0.9284,5.6830,-0.5600,-0.1400,0.2100,999.3190,8.0069,0.8740,5.5943,1590580022,N
80,2018592,8.1045,0.9571,5.7069,-0.2800,-0.4900,-0.2100,999.3184,7.9997,0.8879,5.6024,1590580022,N
80,2014134,8.1069,0.9428,5.6901,-0.4900,-0.1400,0.2800,999.3176,7.9981,0.8926,5.6039,1590580023,N
80,2012457,8.1212,0.9093,5.6853,-0.2800,-0.0700,-0.2800,999.3174,7.9935,0.8940,5.6102,1590580023,N
80,2012882,8.1547,0.9380,5.6877,-0.2800,-0.2800,0.1400,999.3172,7.9974,0.8975,5.6041,1590580023,N
80,2013237,8.1188,0.9284,5.7045,-0.2100,-0.2100,0.0700,999.3172,7.9961,0.8995,5.6057,1590580023,N
80,2014463,8.1547,0.9308,5.6806,-0.2100,-0.2800,-0.0700,999.3167,7.9983,0.9021,5.6021,1590580023,N
80,2016241,8.1308,0.9332,5.6901,-0.4900,-0.2100,0.0700,999.3162,7.9967,0.9031,5.6042,1590580023,N
80,2018125,8.1404,0.9428,5.6949,-0.4900,-0.3500,0.0700,999.3166,7.9963,0.9055,5.6045,1590580023,N
80,2014138,8.0901,0.8830,5.7045,-0.4900,-0.2800,0.2100,999.3165,7.9937,0.8955,5.6097,1590580023,N
80,2012016,8.1093,0.8447,5.6686,-0.1400,-0.2800,-0.0700,999.3165,7.9961,0.8831,5.6083,1590580023,N
80,2012387,8.1117,0.9069,5.6638,-0.5600,-0.5600,-0.1400,999.3168,7.9953,0.8842,5.6093,1590580023,N
80,2012765,8.1236,0.8638,5.6997,-0.5600,-0.2800,-0.0700,999.3171,7.9919,0.8758,5.6154,1590580024,N
80,2013704,8.1093,0.8877,5.6782,-0.7000,-0.2800,-0.1400,999.3166,7.9880,0.8742,5.6212,1590580024,N
80,2015641,8.1380,0.8758,5.6518,-0.7000,-0.3500,0.2800,999.3168,7.9947,0.8677,5.6127,1590580024,N
80,2017578,8.0758,0.9260,5.7356,-0.6300,-0.2100,0.2800,999.3166,7.9873,0.8727,5.6224,1590580024,N
80,2016087,8.1571,0.8614,5.7093,-0.3500,-0.0700,0.1400,999.3167,7.9899,0.8651,5.6199,1590580024,N
80,2013173,8.1380,0.9308,5.6303,-0.2100,-0.4200,-0.2800,999.3170,7.9954,0.8767,5.6104,1590580024,N
80,2013216,8.0949,0.8566,5.7117,-0.0700,-0.2100,-0.2800,999.3167,7.9901,0.8717,5.6186,1590580024,N
80,2013778,8.1141,0.8734,5.6566,-0.2800,0.0700,0.1400,999.3165,7.9938,0.8681,5.6139,1590580024,N
80,2014319,8.1284,0.9021,5.6710,0.1400,0.1400,-0.2100,999.3170,7.9950,0.8741,5.6113,1590580024,N
80,2015898,8.1500,0.8734,5.6710,0.1400,0.1400,-0.2100,999.3175,7.9976,0.8730,5.6078,1590580024,N
80,2017958,8.0853,0.9212,5.6901,0.2100,0.1400,0.1400,999.3181,7.9977,0.8802,5.6065,1590580025,N
80,2017845,8.0566,0.8830,5.6662,-0.4900,0.1400,0.1400,999.3190,7.9931,0.8767,5.6135,1590580025,N
81,2013892,8.1356,0.9308,5.7476,-0.2100,-0.2100,0.0700,999.3196,7.9897,0.8826,5.6174,1590580025,N
80,2013183,8.1021,0.9284,5.7093,-0.4200,-0.0700,-0.0700,999.3199,7.9844,0.8880,5.6242,1590580025,N
80,2013803,8.1165,0.8710,5.6590,-0.4200,-0.2100,-0.1400,999.3209,7.9863,0.8817,5.6225,1590580025,N
80,2014300,8.1069,0.9045,5.7308,-0.1400,-0.2800,-0.1400,999.3214,7.9827,0.8836,5.6272,1590580025,N
81,2015736,8.1260,0.8686,5.7212,-0.2100,-0.2800,0.0700,999.3215,7.9844,0.8764,5.6260,1590580025,N
80,2017584,8.1284,0.8853,5.7021,0.1400,-0.2100,-0.0700,999.3216,7.9882,0.8762,5.6206,1590580025,N
80,2018682,8.1428,0.9284,5.6830,-0.3500,-0.4200,-0.2800,999.3217,7.9883,0.8839,5.6193,1590580025,N
81,2014528,8.1332,0.9308,5.7069,-0.6300,-0.2100,0.2800,999.3215,7.9887,0.8860,5.6184,1590580025,N
81,2013005,8.1476,0.9212,5.7404,-0.4900,-0.2100,0.2100,999.3221,7.9872,0.8862,5.6204,1590580026,N
81,2013534,8.1380,0.8447,5.6112,-0.2100,-0.2100,-0.2100,999.3233,7.9955,0.8765,5.6102,1590580026,N
81,2014041,8.0782,0.8638,5.7332,-0.2800,-0.2800,-0.2100,999.3243,7.9866,0.8718,5.6236,1590580026,N
81,2015270,8.0542,0.8590,5.7236,-0.1400,-0.0700,-0.2100,999.3256,7.9787,0.8681,5.6353,1590580026,N
81,2017177,8.0901,0.8590,5.6518,-0.5600,-0.2100,0.2800,999.3257,7.9847,0.8608,5.6280,1590580026,N
81,2019414,8.1332,0.9069,5.7212,-0.4200,-0.2100,0.3500,999.3249,7.9873,0.8630,5.6239,1590580026,N
81,2017089,8.1260,0.9093,5.6614,-0.3500,0.2100,0.6300,999.3239,7.9961,0.8647,5.6111,1590580026,N
81,2014630,8.1811,0.8207,5.6207,-1.0500,0.1400,1.2600,999.3223,8.0140,0.8418,5.5891,1590580026,N
81,2014862,8.1619,0.8303,5.6758,-0.2100,-0.2800,0.2800,999.3217,8.0191,0.8341,5.5829,1590580026,N
81,2015513,8.1619,0.6891,5.6806,-1.0500,0.0700,-0.2800,999.3210,8.0085,0.8009,5.6029,1590580026,N
81,2016311,8.0830,0.8183,5.6853,-0.4900,-0.2800,0.0700,999.3212,8.0037,0.8004,5.6098,1590580027,N
81,2017999,8.1117,0.8064,5.6399,-0.3500,-0.2800,0.0700,999.3215,8.0074,0.7981,5.6050,1590580027,N
81,2020238,8.1165,0.7968,5.7045,-0.7000,-0.4200,0.1400,999.3220,8.0033,0.7921,5.6116,1590580027,N
81,2021809,8.0901,0.8016,5.6136,-0.4200,-0.4200,-0.1400,999.3228,8.0055,0.7921,5.6084,1590580027,N
81,2018457,8.1332,0.7753,5.7141,-0.2100,-0.0700,0.1400,999.3246,8.0047,0.7846,5.6107,1590580027,N
81,2017219,8.1212,0.8399,5.6566,-0.2100,0.2100,0.0700,999.3256,8.0056,0.7924,5.6084,1590580027,N
81,2018004,8.1260,0.8303,5.7141,-0.2100,-0.0700,0.1400,999.3270,8.0036,0.7956,5.6106,1590580027,N
81,2018366,8.1308,0.9069,5.6925,0.2100,-0.1400,0.4900,999.3290,8.0118,0.8126,5.5965,1590580027,N
81,2019550,8.0925,0.7777,5.7523,-0.4900,0.2800,2.0300,999.3305,8.0239,0.7889,5.5826,1590580027,N
81,2021518,8.1547,0.7011,5.7332,-0.5600,0.1400,1.7500,999.3317,8.0380,0.7558,5.5668,1590580027,N
81,2023599,8.0877,0.7059,5.7069,-0.3500,-0.0700,-0.1400,999.3327,8.0248,0.7438,5.5874,1590580028,N
81,2022155,8.1428,0.7848,5.7428,-0.3500,0.0700,-0.3500,999.3326,8.0093,0.7500,5.6088,1590580028,N
81,2019159,8.1308,0.7274,5.6734,-0.1400,-0.2800,0.2800,999.3325,8.0157,0.7412,5.6009,1590580028,N
81,2018910,8.0925,0.7370,5.7332,-0.1400,-0.3500,-0.2800,999.3322,8.0053,0.7395,5.6159,1590580028,N
81,2019619,8.1500,0.7681,5.7284,-0.3500,-0.0700,0.3500,999.3324,8.0061,0.7390,5.6149,1590580028,N
81,2020255,8.0734,0.7537,5.7069,-0.3500,-0.2800,-0.4900,999.3319,7.9933,0.7420,5.6327,1590580028,N
81,2021791,8.1045,0.7322,5.6542,-0.3500,-0.2800,0.1400,999.3317,7.9989,0.7364,5.6255,1590580028,N
81,2023816,8.0853,0.7274,5.6207,-0.3500,-0.4200,0.0700,999.3315,8.0050,0.7318,5.6174,1590580028,N
81,2024991,8.1188,0.8279,5.6973,-0.4200,-0.3500,-0.3500,999.3322,7.9972,0.7492,5.6261,1590580028,N
81,2021408,8.0231,0.7322,5.7500,-0.4900,-0.3500,0.0700,999.3325,7.9859,0.7422,5.6432,1590580028,N
81,2019971,8.1141,0.7968,5.7332,-0.2800,-0.3500,0.0700,999.3325,7.9857,0.7491,5.6425,1590580029,N
81,2020541,8.1428,0.7513,5.7308,-0.2800,-0.2100,0.0700,999.3328,7.9874,0.7453,5.6407,1590580029,N
81,2020883,8.0662,0.7681,5.7428,-0.2100,-0.2800,0.1400,999.3325,7.9843,0.7463,5.6449,1590580029,N
81,2021778,8.1236,0.7729,5.7404,-0.4200,-0.2800,0.1400,999.3326,7.9839,0.7465,5.6454,1590580029,N
81,2023658,8.0973,0.7681,5.7069,-0.3500,-0.2100,0.2100,999.3326,7.9862,0.7463,5.6421,1590580029,N
81,2025769,8.0973,0.7346,5.7691,-0.6300,-0.2100,0.1400,999.3322,7.9791,0.7384,5.6532,1590580029,N
81,2024167,8.0949,0.6724,5.7643,0.1400,0.0700,0.1400,999.3314,7.9802,0.7227,5.6537,1590580029,N
81,2021427,8.1188,0.7466,5.7188,-0.7000,-0.2100,0.3500,999.3303,7.9825,0.7205,5.6508,1590580029,N
81,2021250,8.1308,0.7896,5.7763,-0.2800,-0.2800,0.4900,999.3290,7.9856,0.7271,5.6455,1590580029,N
81,2021687,8.1332,0.6532,5.7332,-0.6300,-0.2800,0.4900,999.3279,7.9904,0.7048,5.6415,1590580029,N
81,2022214,8.0973,0.6963,5.6853,-0.4900,-0.3500,0.7000,999.3271,8.0007,0.6954,5.6280,1590580030,N
81,2023661,8.1308,0.7394,5.6877,0.1400,-0.1400,-0.1400,999.3257,8.0034,0.7034,5.6233,1590580030,N
81,2025313,8.0877,0.7107,5.6853,-0.1400,-0.1400,0.3500,999.3247,8.0076,0.7006,5.6176,1590580030,N
81,2025475,8.0830,0.6963,5.6734,-0.1400,0.1400,0.2100,999.3241,8.0084,0.6967,5.6170,1590580030,N
81,2021974,8.1069,0.6891,5.6830,-0.2800,-0.3500,0.2100,999.3239,8.0110,0.6912,5.6139,1590580030,N
81,2021095,8.0112,0.7274,5.7356,-0.1400,-0.3500,0.2100,999.3241,8.0027,0.6955,5.6252,1590580030,N
81,2021624,8.1021,0.7490,5.7236,0.1400,-0.0700,0.0700,999.3251,8.0023,0.7041,5.6248,1590580030,N
81,2021951,8.1404,0.7322,5.7428,-0.2800,-0.2100,0.3500,999.3254,8.0036,0.7038,5.6230,1590580030,N
81,2023254,8.1093,0.6604,5.7093,-0.0700,-0.2100,1.0500,999.3251,8.0190,0.6865,5.6031,1590580030,N
81,2024914,8.1165,0.7250,5.7093,-0.2100,0.1400,1.5400,999.3248,8.0350,0.6817,5.5806,1590580030,N
81,2025831,8.1093,0.6030,5.6614,0.4900,-0.3500,0.3500,999.3243,8.0459,0.6641,5.5671,1590580031,N
81,2021812,8.0830,0.6126,5.7715,-0.9800,-0.2100,0.5600,999.3232,8.0307,0.6451,5.5913,1590580031,N
81,2020034,8.0806,0.6102,5.7212,-0.4900,-0.1400,0.1400,999.3237,8.0204,0.6341,5.6072,1590580031,N
81,2020231,8.0973,0.6030,5.7165,-0.8400,-0.1400,0.0700,999.3242,8.0086,0.6230,5.6253,1590580031,N
81,2020329,8.1404,0.6293,5.7428,-0.3500,-0.2800,0.0700,999.3246,8.0051,0.6203,5.6306,1590580031,N
81,2021249,8.0495,0.5934,5.7260,-0.4900,-0.1400,0.0700,999.3251,7.9959,0.6117,5.6447,1590580031,N
81,2022789,8.0614,0.5958,5.7141,-0.2100,-0.2100,0.1400,999.3273,7.9950,0.6057,5.6466,1590580031,N
81,2024524,8.0949,0.5838,5.7739,-0.2100,-0.1400,0.1400,999.3288,7.9907,0.5979,5.6534,1590580031,N
81,2022035,8.0973,0.6030,5.7308,0.1400,-0.1400,0.0700,999.3286,7.9941,0.5974,5.6486,1590580031,N
81,2019038,8.1260,0.5934,5.7260,-0.0700,-0.1400,0.0700,999.3288,7.9968,0.5941,5.6452,1590580031,N
81,2018642,8.0973,0.6173,5.7332,-0.1400,-0.3500,-0.0700,999.3290,7.9941,0.5969,5.6487,1590580032,N
81,2019081,8.1141,0.5934,5.7021,-0.2800,-0.2100,0.1400,999.3298,7.9973,0.5928,5.6446,1590580032,N
81,2019550,8.1141,0.5480,5.7021,-0.5600,-0.1400,0.3500,999.3304,8.0002,0.5783,5.6421,1590580032,N
81,2021055,8.1284,0.5815,5.8146,-0.1400,-0.2100,0.2100,999.3303,7.9958,0.5747,5.6487,1590580032,N
81,2022923,8.0997,0.6197,5.7739,-0.1400,-0.2800,0.2100,999.3298,7.9940,0.5799,5.6506,1590580032,N
81,2024325,8.1452,0.6365,5.7835,-0.2100,-0.3500,-0.2800,999.3284,7.9857,0.5895,5.6614,1590580032,N
81,2020653,8.0877,0.6604,5.7882,-0.4900,-0.2800,0.1400,999.3277,7.9781,0.5989,5.6712,1590580032,N
81,2018921,8.0806,0.6245,5.7571,-0.2800,-0.2100,0.1400,999.3270,7.9769,0.6004,5.6727,1590580032,N
81,2019173,8.0997,0.6173,5.6853,-0.3500,-0.4200,-0.1400,999.3264,7.9796,0.6020,5.6688,1590580032,N
81,2019505,8.0566,0.6150,5.7715,-0.4900,-0.2800,0.0700,999.3260,7.9719,0.6009,5.6797,1590580032,N
81,2020318,8.0614,0.5815,5.7835,-0.5600,-0.3500,-0.0700,999.3262,7.9623,0.5938,5.6939,1590580033,N
81,2022107,8.0806,0.6508,5.7619,-0.4200,-0.4900,-0.0700,999.3265,7.9600,0.6022,5.6962,1590580033,N
81,2023832,8.0830,0.6150,5.7117,-0.3500,-0.1400,-0.1400,999.3270,7.9610,0.6030,5.6947,1590580033,N
81,2023716,8.1141,0.5982,5.7093,-0.2800,-0.2100,-0.1400,999.3272,7.9653,0.6003,5.6890,1590580033,N
81,2020360,8.1571,0.5623,5.7428,-0.1400,-0.3500,-0.0700,999.3282,7.9720,0.5905,5.6805,1590580033,N
81,2019548,8.1093,0.5551,5.7452,-0.4900,-0.2800,0.1400,999.3296,7.9732,0.5791,5.6801,1590580033,N
81,2019928,8.1188,0.5456,5.7332,0.0700,0.1400,0.0700,999.3303,7.9794,0.5706,5.6722,1590580033,N
81,2020316,8.1236,0.6317,5.6973,0.0700,-0.2800,0.1400,999.3315,7.9912,0.5805,5.6545,1590580033,N
81,2021605,8.0758,0.5408,5.7500,-0.2100,-0.1400,0.2100,999.3325,7.9902,0.5691,5.6571,1590580033,N
81,2023384,8.1117,0.5886,5.7595,-0.0700,-0.2100,-0.1400,999.3333,7.9864,0.5717,5.6623,1590580033,N
81,2024461,8.1571,0.6102,5.7165,-0.4200,-0.2100,0.0700,999.3337,7.9896,0.5754,5.6573,1590580034,N
81,2020626,8.0806,0.6221,5.7811,-0.3500,-0.2800,-0.1400,999.3334,7.9785,0.5824,5.6722,1590580034,N
81,2018977,8.1212,0.5886,5.8361,-0.4200,-0.1400,0.0700,999.3333,7.9696,0.5792,5.6851,1590580034,N
81,2019293,8.1045,0.5958,5.7165,-0.3500,-0.2800,-0.1400,999.3326,7.9704,0.5806,5.6839,1590580034,N
80,2019605,8.1523,0.5719,5.7930,-0.1400,-0.2800,0.1400,999.3320,7.9746,0.5750,5.6785,1590580034,N
81,2020535,8.0830,0.5695,5.7212,-0.1400,-0.2800,-0.0700,999.3305,7.9764,0.5725,5.6763,1590580034,N
80,2022081,8.0734,0.5886,5.7428,-0.4900,-0.2800,-0.0700,999.3282,7.9707,0.5730,5.6842,1590580034,N
80,2023910,8.0830,0.5934,5.7452,-0.2100,-0.2800,0.1400,999.3270,7.9738,0.5739,5.6798,1590580034,N
81,2020554,8.1045,0.6126,5.7739,-0.0700,-0.1400,0.1400,999.3262,7.9758,0.5785,5.6764,1590580034,N
80,2018405,8.1260,0.5623,5.7356,-0.1400,-0.1400,0.0700,999.3264,7.9807,0.5725,5.6702,1590580034,N
80,2018200,8.0949,0.6173,5.7045,-0.4900,-0.2100,0.0700,999.3273,7.9812,0.5778,5.6690,1590580035,N
80,2018359,8.0399,0.6724,5.7428,-0.2100,-0.2100,0.1400,999.3284,7.9784,0.5938,5.6712,1590580035,N
80,2019274,8.0590,0.5480,5.7763,-1.3300,0.2800,2.1700,999.3281,7.9951,0.5651,5.6506,1590580035,N
80,2021007,8.0830,0.4116,5.7667,-0.4200,0.2800,0.4900,999.3287,7.9946,0.5288,5.6548,1590580035,N
80,2022940,8.0997,0.6389,5.7571,0.4900,-0.4900,-0.7000,999.3289,7.9866,0.5549,5.6636,1590580035,N
80,2020018,8.0662,0.5264,5.7954,-0.2800,-0.1400,0.8400,999.3298,7.9929,0.5415,5.6560,1590580035,N
80,2017534,8.0662,0.5384,5.7284,-0.0700,-0.2100,-0.5600,999.3298,7.9808,0.5430,5.6730,1590580035,N
80,2017483,8.1212,0.6413,5.7523,-0.4200,-0.5600,0.2100,999.3302,7.9834,0.5576,5.6678,1590580035,N
80,2017623,8.0734,0.4857,5.7571,-0.3500,-0.2100,-0.0700,999.3316,7.9770,0.5412,5.6784,1590580035,N
80,2018474,8.0853,0.5982,5.7212,-0.3500,-0.3500,-0.3500,999.3331,7.9708,0.5521,5.6861,1590580035,N
80,2019810,8.1356,0.5647,5.7811,-0.8400,-0.2100,0.7700,999.3346,7.9774,0.5447,5.6776,1590580036,N
80,2021473,8.0949,0.4905,5.8361,-0.8400,-0.4200,-0.4900,999.3367,7.9525,0.5320,5.7136,1590580036,N
80,2019143,8.0566,0.5168,5.7332,-0.3500,-0.0700,0.2800,999.3386,7.9586,0.5250,5.7057,1590580036,N
81,2016160,8.1021,0.4618,5.7165,0.1400,-0.2800,-0.0700,999.3401,7.9693,0.5121,5.6920,1590580036,N
80,2015866,8.1021,0.6293,5.7978,-0.1400,-0.2800,-0.0700,999.3426,7.9660,0.5332,5.6947,1590580036,N
80,2015902,8.0758,0.5192,5.7930,-0.2100,0.1400,0.2800,999.3442,7.9660,0.5264,5.6952,1590580036,N
80,2016403,8.1212,0.5671,5.7667,-0.2100,0.1400,0.1400,999.3454,7.9687,0.5311,5.6911,1590580036,N
81,2017696,8.1021,0.5432,5.7571,-0.1400,-0.1400,0.2800,999.3466,7.9756,0.5296,5.6815,1590580036,N
80,2019570,8.0925,0.5743,5.7882,-0.4200,-0.1400,0.1400,999.3473,7.9709,0.5343,5.6876,1590580036,N
80,2017352,8.0806,0.5145,5.8002,0.2800,0.0700,-0.0700,999.3484,7.9700,0.5302,5.6893,1590580036,N
81,2014143,8.1523,0.5551,5.7308,-0.4200,-0.0700,-0.0700,999.3491,7.9716,0.5322,5.6868,1590580037,N
80,2013659,8.0925,0.5647,5.7811,0.0700,-0.2800,-0.0700,999.3498,7.9718,0.5376,5.6861,1590580037,N
80,2013717,8.1212,0.5264,5.7619,-0.4200,-0.0700,0.1400,999.3500,7.9722,0.5312,5.6861,1590580037,N
80,2014184,8.0638,0.5480,5.7332,-0.2100,-0.0700,0.2100,999.3496,7.9754,0.5314,5.6816,1590580037,N
81,2015767,8.0542,0.4929,5.7667,0.0700,-0.2800,-0.1400,999.3500,7.9728,0.5237,5.6860,1590580037,N
80,2017591,8.1643,0.5288,5.7476,-0.0700,-0.2100,0.4200,999.3506,7.9881,0.5198,5.6648,1590580037,N
81,2018562,8.0853,0.5168,5.6901,-0.4900,-0.2100,0.4200,999.3520,7.9949,0.5138,5.6557,1590580037,N
81,2014673,8.0638,0.5671,5.7428,-0.5600,-0.3500,0.0700,999.3527,7.9865,0.5208,5.6670,1590580037,N
81,2012795,8.0853,0.5288,5.7404,-0.1400,-0.1400,0.1400,999.3527,7.9878,0.5197,5.6653,1590580037,N
81,2012858,8.0901,0.5025,5.7069,-0.3500,-0.2100,-0.2100,999.3519,7.9830,0.5152,5.6725,1590580037,N
81,2013207,8.1045,0.5168,5.7858,-0.2800,-0.3500,0.0700,999.3503,7.9799,0.5123,5.6771,1590580038,N
81,2014311,8.0638,0.4857,5.7858,-0.2800,-0.1400,0.1400,999.3496,7.9751,0.5039,5.6845,1590580038,N
81,2016200,8.1332,0.5838,5.7547,-0.2800,-0.2800,0.0700,999.3484,7.9778,0.5164,5.6796,1590580038,N
81,2018199,8.0758,0.5145,5.7858,-0.4900,-0.2800,0.0700,999.3479,7.9705,0.5123,5.6902,1590580038,N
81,2020380,8.0590,0.4666,5.8098,-0.2100,-0.2800,0.0700,999.3478,7.9655,0.5006,5.6983,1590580038,N
81,2018394,8.1260,0.4379,5.7691,0.2100,-0.0700,-0.1400,999.3472,7.9703,0.4882,5.6926,1590580038,N
81,2015696,8.1380,0.5503,5.7547,-0.2800,-0.0700,-0.0700,999.3474,7.9705,0.4981,5.6915,1590580038,N
81,2015307,8.0853,0.4786,5.7500,-0.3500,-0.4900,-0.0700,999.3477,7.9689,0.4921,5.6943,1590580038,N
81,2015671,8.0830,0.5073,5.7452,-0.6300,-0.2100,-0.1400,999.3492,7.9607,0.4925,5.7057,1590580038,N
81,2016217,8.0710,0.5312,5.6997,-0.4200,-0.3500,-0.1400,999.3508,7.9617,0.4986,5.7038,1590580038,N
81,2017785,8.1284,0.5192,5.7763,-0.3500,-0.2800,-0.1400,999.3530,7.9597,0.5004,5.7064,1590580039,N
81,2019590,8.1476,0.5480,5.7260,-0.4200,-0.2800,0.2800,999.3549,7.9717,0.5049,5.6892,1590580039,N
81,2021636,8.0375,0.5647,5.7739,-0.5600,-0.2800,-0.1400,999.3560,7.9588,0.5144,5.7065,1590580039,N
81,2021183,8.0901,0.5121,5.7595,-0.4200,-0.2100,0.2800,999.3566,7.9633,0.5093,5.7005,1590580039,N
81,2018139,8.1021,0.5767,5.6686,-0.3500,-0.5600,0.3500,999.3566,7.9809,0.5182,5.6752,1590580039,N
81,2017535,8.0614,0.3996,5.7595,-2.4500,0.2800,2.1700,999.3569,7.9867,0.4715,5.6710,1590580039,N
81,2018273,8.1284,0.1555,5.6901,-3.0800,0.4200,1.4000,999.3571,7.9719,0.3883,5.6982,1590580039,N
81,2018676,8.1332,0.4642,5.7356,-3.0800,-0.2800,-0.4200,999.3572,7.9124,0.3934,5.7802,1590580039,N
81,2020003,8.0925,0.4666,5.7547,-0.2100,0.1400,0.6300,999.3573,7.9402,0.4023,5.7412,1590580039,N
81,2021844,8.0758,0.4044,5.7619,-0.2100,-0.0700,0.6300,999.3572,7.9599,0.3971,5.7142,1590580039,N
81,2023976,8.1021,0.4929,5.7452,-0.0700,0.0700,0.1400,999.3573,7.9690,0.4138,5.7004,1590580040,N
81,2021858,8.0806,0.4116,5.7691,0.1400,0.0700,0.1400,999.3575,7.9755,0.4119,5.6913,1590580040,N
81,2019545,8.1428,0.4451,5.7643,0.0700,-0.0700,0.1400,999.3574,7.9848,0.4163,5.6780,1590580040,N
81,2019352,8.0758,0.4810,5.7523,-0.2100,-0.2100,0.1400,999.3573,7.9845,0.4265,5.6777,1590580040,N
81,2019757,8.0901,0.4259,5.7595,-0.2100,-0.1400,-0.1400,999.3575,7.9778,0.4253,5.6872,1590580040,N
81,2020481,8.0566,0.3996,5.7093,-0.4200,-0.2800,0.2800,999.3572,7.9821,0.4163,5.6818,1590580040,N
81,2021858,8.0710,0.4834,5.7452,0.1400,-0.0700,0.0700,999.3571,7.9862,0.4287,5.6752,1590580040,N
81,2023787,8.0590,0.4427,5.7141,-0.4900,-0.1400,0.1400,999.3569,7.9833,0.4281,5.6793,1590580040,N
81,2023662,8.1260,0.4546,5.7404,-0.3500,-0.1400,0.0700,999.3558,7.9836,0.4303,5.6787,1590580040,N
81,2019983,8.1093,0.4570,5.8361,-0.2800,-0.4200,0.0700,999.3544,7.9764,0.4324,5.6887,1590580040,N
81,2018978,8.1021,0.3757,5.7595,-0.1400,-0.2100,0.0700,999.3532,7.9787,0.4190,5.6864,1590580041,N
80,2019256,8.1045,0.5097,5.7763,-0.2800,-0.2100,0.1400,999.3533,7.9781,0.4336,5.6862,1590580041,N
80,2019659,8.0734,0.4331,5.7906,-0.2100,-0.2800,-0.0700,999.3531,7.9711,0.4320,5.6961,1590580041,N
80,2020800,8.0758,0.4283,5.7356,-0.2800,-0.3500,-0.0700,999.3530,7.9699,0.4297,5.6979,1590580041,N
80,2022544,8.0806,0.4020,5.7763,-0.4200,-0.2100,-0.0700,999.3521,7.9623,0.4220,5.7091,1590580041,N
80,2023197,8.0662,0.5121,5.7571,-0.6300,-0.2800,-0.0700,999.3517,7.9542,0.4369,5.7193,1590580041,N
80,2019348,8.0853,0.4522,5.7906,-0.7000,-0.7000,0.0700,999.3514,7.9500,0.4356,5.7253,1590580041,N
80,2017939,8.0662,0.4499,5.8122,-0.4200,-0.2100,0.0700,999.3513,7.9453,0.4352,5.7317,1590580041,N
80,2018098,8.1165,0.4403,5.7404,-0.3500,-0.4200,-0.0700,999.3512,7.9508,0.4340,5.7242,1590580041,N
80,2018277,8.1547,0.4451,5.7523,-0.4900,-0.4900,-0.0700,999.3498,7.9546,0.4332,5.7189,1590580041,N
80,2019284,8.0542,0.4570,5.7643,-0.4900,-0.3500,-0.0700,999.3498,7.9492,0.4356,5.7264,1590580042,N
80,2020831,8.0471,0.4738,5.7906,-0.6300,-0.2800,-0.0700,999.3497,7.9392,0.4402,5.7398,1590580042,N
80,2020772,8.1045,0.4355,5.7212,-0.4200,-0.3500,-0.0700,999.3498,7.9452,0.4371,5.7317,1590580042,N
80,2016989,8.1188,0.4331,5.7069,-0.6300,-0.7000,-0.0700,999.3496,7.9507,0.4333,5.7245,1590580042,N
80,2015601,8.0853,0.4451,5.8026,-0.5600,-0.2100,0.0700,999.3487,7.9456,0.4318,5.7316,1590580042,N
80,2015734,8.0782,0.5121,5.7476,-0.1400,-0.2100,0.0700,999.3475,7.9542,0.4457,5.7186,1590580042,N
79,2015973,8.1236,0.4355,5.7787,0.0700,-0.0700,0.2100,999.3453,7.9663,0.4411,5.7022,1590580042,N
80,2016895,8.1141,0.4570,5.7595,-0.0700,0.2100,0.2800,999.3428,7.9750,0.4409,5.6900,1590580042,N
79,2018540,8.0973,0.4283,5.8170,-0.2800,0.2100,0.0700,999.3406,7.9673,0.4355,5.7012,1590580042,N
79,2016395,8.1380,0.4164,5.7571,0.1400,0.2100,0.2100,999.3387,7.9796,0.4295,5.6844,1590580042,N
79,2012941,8.1021,0.4522,5.7523,0.1400,-0.2100,-0.0700,999.3372,7.9831,0.4337,5.6792,1590580043,N
80,2011923,8.0830,0.4379,5.7739,0.1400,-0.2800,-0.0700,999.3362,7.9830,0.4342,5.6792,1590580043,N
79,2012026,8.0471,0.4187,5.7858,-0.3500,-0.1400,0.1400,999.3344,7.9757,0.4280,5.6899,1590580043,N
79,2012464,8.1212,0.4140,5.7667,-0.4200,-0.1400,0.2100,999.3344,7.9770,0.4211,5.6886,1590580043,N
80,2013839,8.0758,0.4475,5.7835,-0.3500,-0.2800,0.2100,999.3350,7.9752,0.4225,5.6911,1590580043,N
79,2015658,8.1260,0.4642,5.8146,0.3500,-0.0700,0.1400,999.3347,7.9830,0.4294,5.6796,1590580043,N
79,2012065,8.0566,0.3852,5.8146,0.1400,-0.2800,-0.2800,999.3357,7.9730,0.4217,5.6941,1590580043,N
79,2008881,8.0566,0.4379,5.7117,-0.3500,-0.0700,0.1400,999.3374,7.9748,0.4221,5.6917,1590580043,N
80,2008265,8.0973,0.4235,5.7739,-0.2100,-0.3500,0.1400,999.3387,7.9769,0.4195,5.6888,1590580043,N
79,2008382,8.0351,0.4068,5.7523,-0.1400,-0.0700,0.0700,999.3398,7.9747,0.4153,5.6923,1590580043,N
80,2009368,8.0782,0.4235,5.7165,-0.0700,-0.2100,-0.0700,999.3405,7.9775,0.4163,5.6882,1590580044,N
80,2011000,8.0925,0.4331,5.7452,-0.3500,-0.2800,0.0700,999.3400,7.9770,0.4168,5.6889,1590580044,N
80,2013090,8.0590,0.3805,5.7906,-0.2100,-0.2800,-0.0700,999.3408,7.9693,0.4083,5.7003,1590580044,N
80,2013593,8.0686,0.4283,5.7476,-0.7000,-0.3500,-0.0700,999.3417,7.9593,0.4092,5.7142,1590580044,N
80,2009521,8.0925,0.3565,5.7260,-0.7000,-0.2800,0.2100,999.3426,7.9608,0.3940,5.7132,1590580044,N
80,2007692,8.0542,0.4068,5.7308,-0.6300,-0.2800,0.0700,999.3428,7.9571,0.3931,5.7184,1590580044,N
80,2008018,8.1141,0.5791,5.7069,-0.6300,-0.0700,1.6800,999.3428,8.0002,0.4162,5.6564,1590580044,N
80,2008577,8.0518,0.2943,5.7930,-2.2400,0.3500,3.4300,999.3419,8.0415,0.3619,5.6012,1590580044,N
80,2010174,8.1117,0.3182,5.7954,-0.6300,0.1400,1.9600,999.3421,8.0738,0.3376,5.5561,1590580044,N
80,2012162,8.1404,0.2249,5.7763,-0.4900,-0.3500,0.0700,999.3426,8.0577,0.3121,5.5809,1590580044,N
80,2014354,8.0327,0.2800,5.7691,-0.7700,-0.4200,0.2100,999.3420,8.0326,0.3012,5.6175,1590580045,N
81,2016478,8.0949,0.2489,5.7667,-0.7700,-0.2800,0.2100,999.3417,8.0151,0.2860,5.6433,1590580045,N
81,2014884,8.0949,0.2512,5.8002,0.1400,0.2800,0.2100,999.3419,8.0163,0.2775,5.6420,1590580045,N
81,2012024,8.1356,0.2154,5.7811,0.2100,0.0700,0.1400,999.3421,8.0231,0.2641,5.6330,1590580045,N
81,2011851,8.0614,0.2752,5.7858,0.3500,-0.2100,0.1400,999.3428,8.0265,0.2660,5.6280,1590580045,N
81,2012073,8.1045,0.2776,5.8385,0.3500,-0.1400,0.2100,999.3428,8.0294,0.2672,5.6238,1590580045,N
81,2012787,8.1332,0.2393,5.7715,0.2800,-0.2800,-0.1400,999.3427,8.0270,0.2626,5.6275,1590580045,N
81,2014361,8.1428,0.3398,5.7739,-0.1400,-0.2100,0.1400,999.3424,8.0218,0.2755,5.6343,1590580045,N
81,2016375,8.0949,0.2776,5.8098,-0.0700,-0.4200,-0.4200,999.3419,7.9957,0.2773,5.6712,1590580045,N
81,2018480,8.0255,0.2680,5.7906,-0.2800,-0.4200,-0.5600,999.3412,7.9612,0.2774,5.7195,1590580045,N
81,2018040,8.0853,0.2943,5.7930,-0.4900,-0.1400,0.2800,999.3408,7.9608,0.2764,5.7201,1590580046,N
81,2014461,8.0973,0.2800,5.7739,-0.1400,-0.2800,-0.1400,999.3408,7.9577,0.2767,5.7245,1590580046,N
81,2012983,8.0710,0.3230,5.8265,-0.6300,-0.3500,-0.1400,999.3401,7.9363,0.2835,5.7537,1590580046,N
81,2013361,8.1069,0.3446,5.9294,1.4000,-0.2800,-0.0700,999.3396,7.9656,0.2995,5.7123,1590580046,N
81,2013730,8.2170,0.3254,5.7930,-0.4200,-0.7700,0.4900,999.3396,7.9854,0.2984,5.6847,1590580046,N
81,2014991,8.0447,0.4331,5.9390,0.6300,-0.2800,-0.3500,999.3393,7.9674,0.3280,5.7082,1590580046,N
81,2016886,8.1308,0.2417,5.7236,-0.6300,0.4200,0.1400,999.3389,7.9644,0.3069,5.7136,1590580046,N
81,2018797,8.1739,0.5408,5.8911,2.3100,-1.1200,-1.3300,999.3389,7.9754,0.3669,5.6947,1590580046,N
81,2018515,8.2361,0.1819,5.8720,-1.6800,-1.1200,1.4000,999.3392,7.9897,0.3140,5.6777,1590580046,N
81,2015023,8.1404,0.3924,5.9414,-2.1000,0.2800,-0.4200,999.3392,7.9117,0.3226,5.7854,1590580046,N
81,2013559,8.1643,0.4522,5.8313,1.1900,-0.4900,0.4900,999.3391,7.9696,0.3476,5.7040,1590580047,N
81,2013613,8.0112,0.2871,6.0084,-0.4200,-0.6300,0.9100,999.3389,7.9678,0.3272,5.7077,1590580047,N
81,2013949,8.0231,0.4475,5.5633,0.2800,0.8400,1.7500,999.3387,8.0374,0.3418,5.6084,1590580047,N
81,2014947,7.9657,0.3230,5.7188,-4.1300,-4.8300,2.8700,999.3382,8.0523,0.3051,5.5890,1590580047,N
80,2016550,7.8389,0.1842,5.9964,-8.5400,2.1000,2.7300,999.3373,7.8601,0.2336,5.8595,1590580047,N
81,2018256,8.1404,0.3781,5.4317,2.3800,0.1400,-1.6100,999.3365,7.9411,0.2816,5.7472,1590580047,N
81,2014865,8.0853,0.2201,5.8122,-0.9100,-0.4900,-0.4900,999.3358,7.9019,0.2682,5.8015,1590580047,N
81,2013144,8.0064,0.3637,6.0299,-2.5900,1.0500,0.1400,999.3358,7.8134,0.2752,5.9199,1590580047,N
80,2013809,8.2002,0.4164,5.5585,3.0800,-0.4900,-1.1900,999.3365,7.9306,0.3214,5.7596,1590580047,N
80,2014028,7.9418,0.2177,5.9916,-0.3500,0.0700,-1.1900,999.3366,7.8607,0.3060,5.8554,1590580048,N
80,2015236,8.0447,0.3565,5.6638,2.3100,0.4900,-0.9800,999.3372,7.9166,0.3304,5.7783,1590580048,N
80,2017348,8.1523,0.2225,5.8193,1.6100,0.2100,0.4200,999.3380,7.9771,0.3111,5.6956,1590580048,N
80,2018632,8.4658,-0.1412,6.5276,21.4200,-0.4200,-17.4300,999.3383,7.8978,0.4075,5.7990,1590580048,N
80,2037799,8.8152,3.7232,8.1117,87.7100,-36.6100,-69.5800,999.3380,7.9072,1.5075,5.6012,1590580048,N
80,2061610,9.5043,4.5703,2.9886,-3.8500,-33.1100,-57.1200,999.3376,7.9277,2.1899,5.3410,1590580048,N
80,2071849,9.2195,4.5751,3.4337,31.7100,-13.3000,-12.4600,999.3373,8.1505,2.6248,4.7802,1590580048,N
80,2078569,7.4943,1.1964,3.6299,-136.7100,-4.4800,-28.3500,999.3363,7.5847,2.1072,5.8483,1590580048,N
80,2078688,6.6688,1.6798,4.6229,-88.8300,16.3100,-35.8400,999.3358,6.8330,1.7841,6.8042,1590580048,N
80,2082796,4.5535,0.4020,6.2859,-88.8300,5.3200,-84.3500,999.3354,9.4817,2.5025,0.0729,1590580048,N
80,2070621,7.2407,1.7109,5.6183,-21.5600,-3.7800,-40.6000,999.3354,9.4764,2.5159,0.1960,1590580048,N
79,2052518,7.8915,2.4024,6.0538,19.6700,5.4600,-36.1900,999.3352,6.2001,2.0456,7.3174,1590580049,N
79,2026659,7.6235,2.8235,6.1902,-0.4900,5.1100,-5.1800,999.3353,6.3632,2.2368,7.1187,1590580049,N
79,2009921,7.2718,3.4720,6.3003,-14.7700,4.4100,-10.0100,999.3346,6.3971,2.4365,7.0221,1590580049,N
79,1994982,6.5061,2.7517,5.9964,2.1000,4.4800,2.3100,999.3344,6.4918,2.5423,6.8966,1590580049,N
79,1991655,6.3338,2.8140,6.3769,90.0200,25.4800,34.5100,999.3338,6.8530,2.9074,6.3839,1590580049,N
79,2002162,7.3268,3.7232,6.1208,89.2500,57.2600,14.1400,999.3329,6.8242,3.4063,6.1642,1590580049,N
79,2006030,4.4435,3.8357,7.8413,76.3000,84.7000,-16.1000,999.3315,5.8811,4.0563,6.7178,1590580049,N
79,2019888,2.3067,5.2044,5.8002,71.0500,60.6200,80.6400,999.3315,5.6575,4.3323,6.7375,1590580049,N
79,2030116,4.4578,3.3332,3.5533,-11.0600,-57.2600,104.7200,999.3311,6.7408,3.6843,6.0958,1590580049,N
79,2035245,5.2857,-4.5775,4.4004,-148.0500,-145.2500,112.1400,999.3309,8.6588,0.9171,4.5116,1590580049,N
79,2054364,1.6391,1.2443,0.4570,-154.6300,61.9500,-158.1300,999.3300,6.4497,1.8717,7.1462,1590580050,N
79,2060184,11.0668,5.3121,5.2355,-41.4400,-3.5700,1.1200,999.3295,6.6011,1.9266,6.9917,1590580050,N
79,2060781,3.9505,2.5771,6.9894,-18.0600,15.9600,4.2000,999.3303,6.1641,1.9204,7.3814,1590580050,N
79,2059203,7.6666,1.9549,8.1739,38.0100,5.1100,3.8500,999.3328,6.4451,2.1109,7.0834,1590580050,N
79,2060297,8.7290,3.1226,3.5988,54.8800,-16.5900,8.4000,999.3344,7.3976,2.6251,5.8783,1590580050,N
79,2058350,7.9418,2.6608,5.9007,9.3100,1.1900,-0.2100,999.3355,7.4543,2.6505,5.7947,1590580050,N
79,2054963,7.9346,2.3450,5.2522,-8.6800,-0.4900,-2.4500,999.3369,7.5215,2.5706,5.7437,1590580050,N
79,2052078,7.9466,2.6824,5.5083,17.9900,1.8200,-7.7700,999.3383,7.5619,2.7028,5.6288,1590580050,N
79,2044965,7.9537,2.8857,5.3001,-1.0500,-1.2600,-0.3500,999.3401,7.6168,2.7275,5.5422,1590580050,N
79,2038316,7.8604,2.8355,5.4413,1.4000,0.4200,3.4300,999.3414,7.6587,2.7247,5.4855,1590580050,N
79,2034939,7.8509,2.7709,5.4245,-1.5400,0.8400,5.1100,999.3419,7.6962,2.6897,5.4501,1590580051,N
79,2032913,7.7934,2.4191,5.5370,-0.4200,0.7000,2.8000,999.3420,7.7185,2.6141,5.4554,1590580051,N
79,2031802,7.8844,2.6297,5.4317,-1.1900,0.7000,0.8400,999.3424,7.7307,2.6015,5.4442,1590580051,N
80,2031679,7.8078,2.6130,5.4820,-3.2900,1.4700,3.0100,999.3427,7.7341,2.5690,5.4548,1590580051,N
79,2029242,7.8150,2.4503,5.4772,-1.6100,0.2800,2.5200,999.3430,7.7518,2.5212,5.4519,1590580051,N
80,2024330,7.8437,2.4072,5.5035,-0.0700,0.0700,1.6800,999.3430,7.7675,2.4840,5.4466,1590580051,N
80,2022552,7.8197,2.5986,5.4963,-0.0700,0.4200,5.6000,999.3428,7.7906,2.4667,5.4215,1590580051,N
79,2022517,7.9107,2.3139,5.5466,-2.5200,1.4000,8.5400,999.3430,7.8290,2.3678,5.4102,1590580051,N
80,2022286,7.9394,2.0626,5.5777,-2.3100,1.1900,6.3000,999.3434,7.8590,2.2541,5.4153,1590580051,N
80,2023115,7.9490,1.9190,5.6471,-0.5600,0.0700,1.1200,999.3431,7.8638,2.1726,5.4416,1590580052,N
80,2024265,7.9011,2.0722,5.5753,0.0700,-0.6300,-1.6100,999.3430,7.8528,2.1590,5.4628,1590580052,N
79,2021283,7.9226,2.2421,5.5920,-0.2100,0.0700,0.1400,999.3435,7.8433,2.1675,5.4732,1590580052,N
79,2018967,7.8915,2.1511,5.5633,-1.2600,0.4200,1.4700,999.3442,7.8424,2.1469,5.4826,1590580052,N
79,2019301,7.9322,2.1248,5.5705,-0.2100,0.4200,-0.1400,999.3445,7.8382,2.1379,5.4920,1590580052,N
79,2019692,7.9370,2.1607,5.5968,-0.2100,-0.3500,-0.3500,999.3441,7.8344,2.1374,5.4976,1590580052,N
79,2020548,7.9083,2.1368,5.5825,0.2100,0.0700,0.4900,999.3442,7.8354,2.1305,5.4989,1590580052,N
79,2022189,7.9442,2.1607,5.5274,0.2800,-0.2100,-0.1400,999.3445,7.8407,2.1335,5.4902,1590580052,N
79,2023161,7.9346,2.1727,5.5585,0.2800,-0.3500,0.0700,999.3448,7.8430,2.1364,5.4857,1590580052,N
79,2019806,7.8365,2.1009,5.6207,-0.3500,-0.3500,0.0700,999.3451,7.8331,2.1247,5.5044,1590580052,N
79,2018643,7.9035,2.1320,5.5131,-0.2100,-0.2100,-0.2800,999.3455,7.8360,2.1243,5.5005,1590580053,N
79,2019519,7.9131,2.1583,5.5250,-0.2100,-0.2100,0.1400,999.3456,7.8395,2.1257,5.4949,1590580053,N
79,2020409,7.9083,2.1129,5.5370,-0.2100,-0.2800,0.1400,999.3467,7.8428,2.1180,5.4932,1590580053,N
79,2021723,7.9226,2.1392,5.5370,-0.2100,-0.3500,-0.3500,999.3464,7.8430,2.1194,5.4923,1590580053,N
80,2023741,7.8772,2.1344,5.6136,-0.7700,-0.1400,0.0700,999.3466,7.8331,2.1148,5.5082,1590580053,N
80,2023643,7.9442,2.0865,5.4867,-0.4200,-0.0700,-0.0700,999.3472,7.8426,2.1050,5.4984,1590580053,N
80,2020932,7.9155,2.1751,5.5777,0.1400,-0.3500,0.0700,999.3483,7.8411,2.1137,5.4973,1590580053,N
80,2020733,7.9442,2.1559,5.6040,-0.2100,-0.2100,0.2800,999.3499,7.8397,2.1129,5.4996,1590580053,N
80,2021728,7.9370,2.2469,5.6064,-0.3500,-0.0700,0.4200,999.3510,7.8344,2.1282,5.5012,1590580053,N
81,2022540,7.8796,2.1105,5.5346,-0.0700,-0.4200,0.2100,999.3527,7.8385,2.1206,5.4983,1590580053,N
81,2024174,7.9298,2.1559,5.5920,-0.2100,-0.4200,0.0700,999.3528,7.8375,2.1204,5.4998,1590580053,N
81,2026139,7.9561,2.1631,5.6231,-0.7000,-0.1400,0.2800,999.3528,7.8340,2.1170,5.5062,1590580054,N
81,2025373,7.9274,2.1224,5.5872,0.0700,-0.1400,0.4900,999.3528,7.8371,2.1100,5.5044,1590580054,N
81,2023043,7.9490,2.1129,5.5490,-0.4200,-0.1400,0.4200,999.3520,7.8430,2.1014,5.4992,1590580054,N
82,2023499,7.9992,2.0913,5.5537,0.0700,-0.1400,0.4900,999.3509,7.8535,2.0900,5.4886,1590580054,N
82,2024436,7.8939,2.0818,5.5896,-0.5600,-0.1400,0.0700,999.3502,7.8472,2.0821,5.5007,1590580054,N
82,2025302,7.8556,2.1511,5.5825,-0.0700,-1.1200,-1.2600,999.3496,7.8363,2.0998,5.5095,1590580054,N
82,2027034,7.9513,2.1153,5.5585,0.1400,-1.1200,0.7000,999.3495,7.8500,2.0931,5.4924,1590580054,N
82,2029019,7.9035,2.0841,5.5490,-0.1400,-0.3500,-0.2800,999.3492,7.8489,2.0892,5.4955,1590580054,N
83,2027051,7.9777,2.1870,5.6112,1.1900,-0.3500,-0.4900,999.3485,7.8469,2.1078,5.4912,1590580054,N
83,2024998,7.9681,2.1511,5.5920,0.5600,-0.3500,-0.3500,999.3481,7.8465,2.1134,5.4896,1590580054,N
83,2025415,7.9298,2.1511,5.5442,-0.7000,-0.8400,-0.5600,999.3470,7.8454,2.1167,5.4899,1590580055,N
83,2025856,7.8078,2.2445,5.5801,-0.6300,-0.4200,-1.5400,999.3469,7.8215,2.1470,5.5123,1590580055,N
83,2026610,7.9226,2.3450,5.4102,2.5900,0.1400,1.7500,999.3463,7.8481,2.1822,5.4604,1590580055,N
84,2028066,7.9155,2.1751,5.5777,0.9800,-0.6300,2.0300,999.3454,7.8606,2.1661,5.4488,1590580055,N
83,2029223,7.9777,2.0387,5.5944,-1.1900,-0.2800,-0.0700,999.3446,7.8583,2.1303,5.4662,1590580055,N
84,2025646,7.9274,2.1511,5.6279,1.4000,-0.0700,-0.3500,999.3431,7.8506,2.1354,5.4753,1590580055,N
84,2023311,7.9298,2.1823,5.6518,-0.9100,0.0700,0.4200,999.3419,7.8385,2.1313,5.4941,1590580055,N
84,2023346,7.9179,2.1176,5.5968,-1.8200,-0.4200,0.3500,999.3414,7.8345,2.1143,5.5064,1590580055,N
84,2023582,7.9490,2.1751,5.5920,-1.0500,0.0700,0.2100,999.3411,7.8309,2.1146,5.5115,1590580055,N
84,2024146,7.8700,2.1535,5.8265,-1.8200,1.0500,3.5000,999.3408,7.8145,2.0854,5.5457,1590580055,N
84,2025462,8.0710,2.1248,5.1494,9.3800,-2.0300,-3.0100,999.3403,7.8870,2.1465,5.4183,1590580056,N
84,2025862,7.8867,2.2804,5.8217,1.0500,0.6300,1.2600,999.3400,7.8540,2.1587,5.4612,1590580056,N
84,2021825,7.9609,2.2445,5.5250,-4.5500,0.0700,2.3100,999.3400,7.8534,2.1382,5.4701,1590580056,N
85,2020902,7.9202,2.0291,5.6160,-0.7000,-0.8400,-0.4200,999.3400,7.8492,2.1112,5.4867,1590580056,N
85,2021747,7.9896,2.1129,5.5561,0.5600,-0.8400,0.0700,999.3405,7.8593,2.1062,5.4740,1590580056,N
85,2022281,7.9825,2.1009,5.5274,0.3500,-0.2100,0.9800,999.3412,7.8714,2.0947,5.4611,1590580056,N
85,2023592,7.9705,2.0435,5.6016,0.4200,0.2800,-0.6300,999.3412,7.8638,2.0841,5.4761,1590580056,N
85,2025448,7.9274,2.0961,5.5729,0.3500,0.2800,-0.3500,999.3410,7.8568,2.0856,5.4855,1590580056,N
85,2022769,7.9490,2.0363,5.5729,-0.3500,-0.1400,0.1400,999.3408,7.8578,2.0689,5.4904,1590580056,N
85,2020707,7.8963,2.1057,5.5801,0.7000,-0.3500,-0.9100,999.3409,7.8498,2.0805,5.4975,1590580056,N
86,2021500,7.9250,2.0841,5.5083,-0.1400,-0.0700,0.0700,999.3409,7.8545,2.0774,5.4920,1590580057,N
85,2022235,7.9011,2.1583,5.5920,-0.1400,-0.4200,-0.0700,999.3405,7.8475,2.0884,5.4978,1590580057,N
85,2023297,7.8987,2.1057,5.5298,0.4900,-0.4200,0.4200,999.3399,7.8539,2.0881,5.4888,1590580057,N
86,2025067,7.8987,2.0841,5.5825,-1.5400,0.1400,1.6100,999.3398,7.8532,2.0680,5.4974,1590580057,N
86,2024248,7.9968,1.9980,5.6447,-0.2100,0.1400,0.8400,999.3399,7.8564,2.0407,5.5030,1590580057,N
86,2020608,7.9801,1.9908,5.6064,0.4200,-0.4200,-0.9800,999.3409,7.8552,2.0322,5.5079,1590580057,N
86,2020115,7.8987,2.1105,5.5825,0.4200,-0.3500,-1.6100,999.3417,7.8424,2.0552,5.5175,1590580057,N
86,2021106,7.9442,2.2253,5.5250,-0.6300,-0.1400,-0.4200,999.3423,7.8398,2.0839,5.5105,1590580057,N
86,2021828,7.8987,2.1559,5.5155,-0.2100,-0.1400,0.0700,999.3425,7.8417,2.0942,5.5039,1590580057,N
86,2023382,7.9394,2.0865,5.6016,-0.2800,-0.4200,0.5600,999.3425,7.8449,2.0823,5.5037,1590580058,N
86,2024041,7.9753,2.0865,5.5155,-0.2800,-0.5600,-0.4200,999.3423,7.8526,2.0797,5.4938,1590580058,N
86,2020059,7.9346,2.0961,5.5370,-0.7000,-0.4200,0.4200,999.3422,7.8567,2.0735,5.4903,1590580058,N
86,2019034,7.9466,2.0339,5.5490,-0.5600,-0.1400,0.3500,999.3421,7.8603,2.0573,5.4913,1590580058,N
87,2019885,7.9729,2.0626,5.5848,-0.3500,-0.1400,0.2100,999.3425,7.8607,2.0497,5.4935,1590580058,N
87,2020595,7.9418,2.0650,5.5705,-0.1400,-0.2100,0.2800,999.3432,7.8614,2.0457,5.4939,1590580058,N
87,2022004,7.9777,2.0578,5.5585,-0.3500,-0.0700,0.0700,999.3441,7.8632,2.0409,5.4932,1590580058,N
87,2023869,7.9609,2.1224,5.5777,-0.0700,-0.2100,-0.4200,999.3444,7.8583,2.0533,5.4956,1590580058,N
87,2020515,7.9729,2.1224,5.5561,-0.0700,-0.1400,-0.4200,999.3442,7.8568,2.0634,5.4940,1590580058,N
87,2018879,7.9513,2.0722,5.5394,-0.2100,-0.1400,0.1400,999.3452,7.8601,2.0591,5.4909,1590580058,N
87,2019855,7.9705,2.1296,5.5202,0.0700,-0.1400,-0.2800,999.3472,7.8622,2.0700,5.4837,1590580058,N
87,2021040,7.9394,2.1153,5.5705,0.0700,-0.1400,-0.2800,999.3478,7.8577,2.0759,5.4879,1590580059,N
87,2022456,7.9059,2.0554,5.6088,-0.0700,0.0700,0.2800,999.3490,7.8522,2.0656,5.4997,1590580059,N
88,2024617,7.8867,2.1105,5.6136,-0.8400,-0.0700,0.6300,999.3503,7.8446,2.0632,5.5114,1590580059,N
88,2024084,7.9896,1.9525,5.5944,-0.6300,0.5600,2.0300,999.3512,7.8586,2.0209,5.5072,1590580059,N
88,2020770,7.9131,1.9549,5.6279,-0.1400,-0.0700,0.9800,999.3512,7.8598,1.9971,5.5141,1590580059,N
88,2020685,7.9394,1.9932,5.6471,-0.1400,-0.3500,-0.2100,999.3517,7.8539,1.9914,5.5246,1590580059,N
88,2021944,7.9705,2.0411,5.5968,-0.5600,0.0700,0.5600,999.3517,7.8554,1.9899,5.5230,1590580059,N
88,2023104,8.0112,1.9645,5.6351,0.0700,-0.2800,0.5600,999.3514,7.8624,1.9742,5.5186,1590580059,N
88,2025058,7.9370,2.0459,5.5801,-0.3500,-0.4200,0.5600,999.3510,7.8644,1.9790,5.5141,1590580059,N
89,2027307,7.9609,1.9932,5.5394,0.2100,0.0700,0.4900,999.3505,7.8718,1.9758,5.5046,1590580059,N
89,2024705,7.9705,2.1176,5.5825,1.0500,0.0700,0.9800,999.3506,7.8761,1.9955,5.4914,1590580060,N
88,2022787,7.9777,1.9813,5.5801,-0.6300,0.4900,3.9200,999.3511,7.8955,1.9609,5.4761,1590580060,N
89,2023668,7.9274,1.7707,5.6255,-1.7500,0.4200,4.2000,999.3513,7.9096,1.8876,5.4814,1590580060,N
89,2024718,7.9825,1.8138,5.6112,-0.7000,-0.2100,0.5600,999.3516,7.9080,1.8623,5.4923,1590580060,N
89,2026031,7.9274,1.9525,5.6830,0.2100,-0.4900,-1.1900,999.3524,7.8851,1.8829,5.5181,1590580060,N
89,2027937,7.9490,1.9095,5.5825,-0.7700,-0.1400,0.3500,999.3531,7.8834,1.8795,5.5217,1590580060,N
89,2030144,7.9059,1.8760,5.6279,-0.4200,-0.4200,0.5600,999.3524,7.8800,1.8706,5.5297,1590580060,N
89,2028535,7.9633,1.9286,5.6399,-0.4200,-0.1400,0.3500,999.3516,7.8757,1.8730,5.5349,1590580060,N
89,2025977,8.0088,1.8688,5.6590,-0.3500,-0.1400,0.2100,999.3508,7.8750,1.8629,5.5394,1590580060,N
89,2026728,7.9585,1.8664,5.5825,-0.2100,-0.3500,0.1400,999.3500,7.8789,1.8582,5.5354,1590580061,N
89,2027654,8.0542,1.7133,5.7500,5.1800,2.3100,1.0500,999.3491,7.8891,1.8350,5.5286,1590580061,N
90,2028742,8.1619,2.8642,5.4006,80.7800,9.4500,-8.7500,999.3478,7.9743,2.3769,5.1895,1590580061,N
90,2033423,8.4275,3.5055,5.5442,59.1500,17.7100,-1.5400,999.3475,7.9078,2.7995,5.0793,1590580061,N
90,2047476,8.8295,3.5797,5.4293,53.5500,35.1400,-2.6600,999.3469,7.7455,3.1559,5.1204,1590580061,N
90,2059796,7.8604,3.6179,5.8720,54.1100,53.5500,-8.2600,999.3459,7.3899,3.5655,5.3710,1590580061,N
90,2069007,6.9081,5.4389,5.8696,60.3400,29.6800,13.8600,999.3454,7.1325,4.0982,5.3387,1590580061,N
90,2080175,5.9629,4.0893,5.6590,71.6800,50.9600,28.9100,999.3441,6.8770,4.3891,5.4418,1590580061,N
90,2090611,5.0321,5.2307,4.3717,60.0600,56.7000,20.1600,999.3434,6.5468,4.8408,5.4659,1590580061,N
90,2096248,4.5344,5.7165,5.0010,40.1100,70.5600,44.1000,999.3427,6.1205,5.1464,5.6767,1590580061,N
90,2095119,4.3573,5.5418,5.9246,25.9700,57.6100,28.7700,999.3419,5.6807,5.3133,5.9723,1590580062,N
90,2097231,8.2863,8.1595,-5.6758,5.8800,31.6400,19.1100,999.3410,5.9638,5.7629,5.2338,1590580062,N
90,2102157,4.8383,5.5442,5.5729,-20.7900,-2.8700,-0.3500,999.3404,5.8249,5.6981,5.4564,1590580062,N
90,2108044,4.9986,5.6399,6.5635,-12.2500,0.2100,-1.4000,999.3400,5.6423,5.6286,5.7144,1590580062,N
90,2114983,4.6756,5.0704,5.9844,9.0300,3.7800,-5.2500,999.3396,5.4767,5.6757,5.8277,1590580062,N
90,2121401,5.2929,7.0684,6.3553,76.0200,19.3900,-0.7000,999.3381,5.2799,6.1946,5.4699,1590580062,N
90,2129878,5.1135,6.3266,6.2094,54.9500,3.7100,-4.4800,999.3372,5.1453,6.4794,5.2644,1590580063,N
90,2138270,5.0417,7.6929,5.9462,44.4500,39.4800,-10.8500,999.3363,4.7862,6.8145,5.1794,1590580063,N
90,2140118,4.6851,7.4943,4.6158,-61.5300,10.9900,11.2700,999.3351,4.8037,6.5505,5.4941,1590580063,N
90,2136698,4.7378,8.1811,5.4748,13.8600,17.3600,27.8600,999.3340,4.8213,6.5591,5.4684,1590580063,N
90,2139365,4.9101,5.0536,5.2283,38.3600,35.1400,32.3400,999.3331,4.8956,6.4810,5.4955,1590580063,N
90,2143968,4.1085,7.0732,6.4415,-2.4500,14.8400,17.9200,999.3320,4.7158,6.4109,5.7299,1590580063,N
91,2147853,3.7065,6.4822,5.0465,-12.5300,9.8000,15.8200,999.3307,4.6240,6.3818,5.8362,1590580063,N
91,2150896,4.3621,6.8554,6.2548,-22.6800,6.8600,17.7100,999.3295,4.5897,6.1991,6.0561,1590580063,N
91,2153757,4.8646,4.7426,5.7619,-34.3700,8.8900,24.4300,999.3284,4.8065,5.6932,6.3761,1590580063,N
91,2154535,4.8263,4.8814,7.4178,6.7200,6.5800,8.1900,999.3272,4.8003,5.5042,6.5446,1590580063,N
91,2149252,4.7809,4.8359,6.4295,-45.9900,3.2200,4.8300,999.3260,4.8048,5.1219,6.8447,1590580063,N
91,2144230,4.5320,4.5416,7.5422,-24.4300,1.3300,3.2900,999.3249,4.7226,4.8371,7.1042,1590580063,N
91,2141496,4.2568,4.0965,7.7958,-26.5300,23.7300,11.1300,999.3246,4.4903,4.4452,7.4999,1590580063,N
91,2139771,4.1061,3.8788,7.7192,-34.5800,14.3500,15.2600,999.3242,4.3282,4.0394,7.8179,1590580063,N
91,2140485,4.2688,3.8357,7.9657,2.2400,4.1300,4.3400,999.3235,4.3101,3.9891,7.8537,1590580063,N
91,2141961,4.2592,3.2399,8.4227,-11.3400,0.9100,6.3700,999.3221,4.2825,3.7262,7.9966,1590580064,N
91,2138617,3.8883,3.3476,7.6044,-8.8900,-9.8000,-0.5600,999.3217,4.3002,3.6570,8.0190,1590580064,N
91,2136044,2.9264,2.7374,8.9180,43.6800,-29.4000,-108.4300,999.3211,3.9620,4.2859,7.8806,1590580064,N
91,2143846,-1.8616,3.7184,7.8102,-134.5400,-165.8300,-150.2900,999.3204,3.2010,5.0555,7.7696,1590580064,N
90,2145229,6.8961,2.5316,6.4128,-198.6600,-251.7900,-126.1400,999.3196,4.7809,4.2447,7.4361,1590580064,N
91,2143252,9.3224,4.8311,0.7537,-242.4800,-243.2500,-139.7200,999.3187,6.5192,5.8874,-4.3599,1590580064,N
91,2137709,11.8014,6.1208,-0.5551,48.3000,-79.9400,-82.1100,999.3167,-4.8116,6.1594,5.9229,1590580064,N
90,2127510,8.6118,6.8411,1.7970,-18.1300,11.6200,-6.6500,999.3154,6.2939,5.5522,5.0725,1590580064,N
90,2117371,7.6355,3.3619,1.8281,41.5800,28.2100,-1.9600,999.3149,6.3695,5.7111,4.7941,1590580064,N
90,2111762,7.8748,5.0967,3.1681,-50.6100,55.5100,-11.9700,999.3158,6.3702,5.4738,5.0625,1590580064,N
90,2105615,8.8199,5.3671,5.0560,-42.0000,-12.8100,-22.4700,999.3179,6.4369,5.3184,5.1431,1590580065,N
90,2092286,7.8102,3.6778,3.9290,-10.5000,-11.9700,-4.4100,999.3210,6.7702,5.0767,4.9560,1590580065,N
90,2069851,7.4847,4.8814,4.7330,-9.4500,7.7000,-21.0000,999.3245,6.7266,5.0829,5.0087,1590580065,N
90,2044184,7.5446,4.6875,4.7880,-14.3500,4.2000,0.4200,999.3273,6.8222,4.9235,5.0386,1590580065,N
90,2027596,7.5757,4.7880,4.5655,-16.3800,-1.6800,12.6000,999.3301,7.0001,4.7383,4.9717,1590580065,N
90,2015763,7.7408,4.2760,4.7689,-17.2200,-7.1400,5.8800,999.3321,7.1632,4.5228,4.9399,1590580065,N
90,1990521,7.7647,3.8955,4.8024,-10.9900,-3.4300,-0.3500,999.3338,7.2704,4.3497,4.9389,1590580065,N
91,1958854,7.5829,3.9529,4.8957,0.4200,10.4300,5.1100,999.3350,7.2989,4.2490,4.9843,1590580065,N
91,1938142,7.6905,3.9075,4.8550,-0.4200,2.7300,-0.5600,999.3360,7.3466,4.1805,4.9720,1590580065,N
91,1930326,7.6499,3.7735,4.8838,3.0100,1.8900,1.8200,999.3366,7.4057,4.1026,4.9492,1590580066,N
91,1918847,7.7097,3.8501,5.0106,9.3800,0.0700,2.3100,999.3367,7.4599,4.0642,4.8992,1590580066,N
91,1898414,7.6953,3.3571,4.8168,38.9900,8.8900,-10.0800,999.3360,7.4600,4.1662,4.8126,1590580066,N
91,1912666,4.8024,4.1874,5.0225,68.1800,69.7200,-2.1700,999.3350,6.8845,4.7360,5.1327,1590580066,N
91,1931606,5.3240,3.4337,4.0391,46.6200,13.4400,7.6300,999.3337,6.8582,4.9145,4.9983,1590580066,N
91,1950708,6.2261,5.1589,5.1302,2.1700,18.6200,30.6600,999.3328,6.8243,4.8378,5.1182,1590580066,N
91,1966907,7.0923,4.8239,5.6327,0.2800,2.5900,67.4100,999.3317,7.1445,4.3815,5.0920,1590580066,N
92,1981098,16.0893,6.6951,3.1490,-35.2100,-24.0800,-33.3900,999.3306,7.3433,4.4236,4.7621,1590580066,N
92,1986525,7.4752,3.2686,4.8215,-90.6500,20.3000,25.4100,999.3301,7.4031,3.6886,5.2687,1590580066,N
92,1986960,6.0897,5.5777,5.8863,66.5700,-19.4600,-28.0000,999.3309,7.1112,4.4913,5.0428,1590580066,N
92,1982964,8.3581,5.2475,3.3284,14.0000,10.0800,2.5200,999.3312,7.2511,4.6792,4.6581,1590580067,N
92,1980255,7.6092,3.9075,5.2475,-5.3200,13.9300,8.4700,999.3326,7.2702,4.4472,4.8516,1590580067,N
92,1978527,7.6929,3.2877,4.9675,2.5900,-2.1000,7.0000,999.3348,7.4253,4.1781,4.8558,1590580067,N
92,1974689,7.8700,3.5246,4.7880,-3.7100,-0.1400,3.5000,999.3366,7.5257,4.0028,4.8488,1590580067,N
92,1972217,7.8724,3.6323,4.6564,-1.8200,-2.1700,1.2600,999.3376,7.6073,3.9069,4.7996,1590580067,N
92,1976898,7.9011,3.9242,4.7019,-1.7500,7.7700,3.9900,999.3390,7.6159,3.8744,4.8122,1590580067,N
92,1977953,7.7432,3.3954,5.5202,-0.9100,3.1500,1.7500,999.3397,7.5966,3.7490,4.9403,1590580067,N
92,1977575,7.9059,3.9147,4.6229,31.9200,-3.2900,11.8300,999.3401,7.7251,3.8167,4.6825,1590580067,N
92,1978349,7.9513,3.3332,4.6780,1.6100,1.1200,5.7400,999.3389,7.7959,3.6872,4.6689,1590580067,N
92,1976132,7.8963,3.1537,4.9412,-6.7900,-0.1400,3.9900,999.3378,7.8325,3.5232,4.7338,1590580067,N
92,1972505,7.9968,3.1992,4.8144,-2.4500,-1.4000,0.2800,999.3368,7.8639,3.4398,4.7431,1590580068,N
92,1971365,7.9968,3.1729,4.8431,-0.5600,-0.2100,-0.3500,999.3372,7.8800,3.3813,4.7584,1590580068,N
92,1970775,7.9896,3.2399,4.8838,-0.1400,-0.2800,0.6300,999.3376,7.8905,3.3408,4.7697,1590580068,N
92,1970736,7.9944,3.2160,4.8503,0.2800,0.2100,0.4900,999.3378,7.9001,3.3084,4.7764,1590580068,N
92,1971267,7.9944,3.2542,4.8861,0.2100,-0.1400,0.2800,999.3386,7.9034,3.2888,4.7843,1590580068,N
92,1970693,7.9657,3.2423,4.8550,-0.4900,-0.8400,0.7000,999.3388,7.9118,3.2672,4.7852,1590580068,N
92,1967715,8.0160,3.2016,4.9244,-0.4900,-0.6300,0.4200,999.3388,7.9164,3.2401,4.7961,1590580068,N
92,1966761,8.0040,3.1466,4.8215,-0.4900,-0.0700,0.4200,999.3391,7.9273,3.2132,4.7961,1590580068,N
92,1966827,8.0016,3.2471,4.8407,-0.2100,-0.1400,0.0700,999.3389,7.9280,3.2124,4.7956,1590580068,N
92,1967079,7.9777,3.1968,4.8766,-0.2100,-0.1400,0.7000,999.3386,7.9297,3.1989,4.8018,1590580068,N
92,1967698,8.0375,3.1801,4.8335,-0.3500,-0.6300,0.6300,999.3381,7.9413,3.1825,4.7934,1590580069,N
92,1968205,8.0949,3.1848,4.8622,-0.3500,-0.2800,0.4200,999.3385,7.9493,3.1683,4.7897,1590580069,N
92,1965059,8.0566,3.1250,4.8598,-0.3500,-0.0700,0.0700,999.3389,7.9536,3.1510,4.7939,1590580069,N
93,1963846,8.0375,3.1633,4.8383,-0.3500,-0.1400,0.0700,999.3397,7.9558,3.1455,4.7938,1590580069,N
92,1964125,8.0064,3.1633,4.8191,0.6300,-0.2100,0.2100,999.3406,7.9591,3.1459,4.7882,1590580069,N
92,1964284,8.0423,3.1466,4.8215,-0.1400,-0.0700,1.0500,999.3407,7.9673,3.1331,4.7829,1590580069,N
92,1964747,8.0447,3.1370,4.8431,0.1400,-0.3500,1.0500,999.3414,7.9745,3.1209,4.7789,1590580069,N
93,1965774,8.0710,3.0461,4.8766,0.2100,-0.3500,0.2800,999.3423,7.9804,3.0980,4.7839,1590580069,N
92,1963332,8.0566,3.1322,4.8933,0.2100,-0.0700,0.1400,999.3428,7.9765,3.0966,4.7914,1590580069,N
92,1961057,8.0566,3.1178,4.8550,-0.3500,-0.2800,0.2800,999.3436,7.9781,3.0908,4.7924,1590580069,N
93,1960867,8.0638,3.0843,4.8359,-0.5600,-0.4900,0.4200,999.3441,7.9845,3.0785,4.7897,1590580070,N
92,1960877,8.0566,3.0508,4.8981,-0.2800,-0.0700,0.5600,999.3441,7.9849,3.0618,4.7997,1590580070,N
92,1960964,8.0423,3.0772,4.8909,-0.2100,-0.0700,-0.2100,999.3441,7.9798,3.0594,4.8096,1590580070,N
93,1961902,8.0231,3.1561,4.8311,-0.6300,-0.0700,-0.1400,999.3447,7.9751,3.0725,4.8092,1590580070,N
93,1960897,8.0566,3.0915,4.8694,-0.6300,-0.3500,0.2100,999.3455,7.9768,3.0658,4.8106,1590580070,N
93,1957498,8.0471,3.0915,4.8861,-0.6300,-0.2800,-0.3500,999.3475,7.9732,3.0642,4.8176,1590580070,N
93,1956574,8.0782,3.0724,4.9101,0.2100,-0.3500,-0.1400,999.3493,7.9738,3.0588,4.8200,1590580070,N
93,1956552,8.0686,3.0939,4.8718,-0.4900,-0.0700,0.1400,999.3499,7.9747,3.0560,4.8203,1590580070,N
93,1956517,7.9872,3.0820,4.8215,-0.4900,-0.4200,0.1400,999.3491,7.9763,3.0567,4.8172,1590580070,N
93,1957287,8.0447,3.1442,4.8646,-0.0700,-0.1400,-0.0700,999.3480,7.9730,3.0675,4.8158,1590580070,N
93,1957682,8.0231,3.1681,4.8335,-0.1400,-0.2100,-0.0700,999.3468,7.9704,3.0821,4.8108,1590580071,N
93,1953526,8.1141,3.0891,4.8622,-0.3500,-0.4200,0.1400,999.3459,7.9779,3.0718,4.8049,1590580071,N
93,1951538,8.0423,3.0987,4.8574,-0.4900,-0.0700,0.3500,999.3449,7.9782,3.0675,4.8072,1590580071,N
93,1951479,8.0183,3.1298,4.8144,0.8400,-0.3500,-0.2100,999.3444,7.9788,3.0804,4.7979,1590580071,N
93,1951475,8.0566,3.1131,4.8168,-0.2800,-0.4900,0.4900,999.3438,7.9853,3.0768,4.7894,1590580071,N
93,1951971,8.0830,3.0820,4.8550,-0.3500,-0.2800,0.1400,999.3435,7.9880,3.0682,4.7904,1590580071,N
93,1953332,8.0973,3.1011,4.9077,-0.3500,-0.1400,-0.2800,999.3434,7.9834,3.0654,4.7999,1590580071,N
93,1950756,8.1236,3.0724,4.8526,0.4900,-0.1400,0.3500,999.3426,7.9911,3.0573,4.7922,1590580071,N
93,1947984,8.1547,2.5651,5.0249,-13.8600,0.7000,-1.1900,999.3413,7.9802,2.9120,4.8997,1590580071,N
93,1947503,8.3007,3.6921,5.4078,-83.7200,-2.4500,11.5500,999.3414,7.8444,2.6310,5.2644,1590580071,N
93,1948215,8.4323,2.1727,5.1206,-106.2600,-8.6800,8.2600,999.3421,7.6534,2.0688,5.7720,1590580072,N
93,1951171,8.6620,0.6556,4.6373,-47.4600,-3.7800,8.4000,999.3419,7.5905,1.5498,6.0127,1590580072,N
94,1956030,8.2026,0.1268,5.2140,-1.6100,2.3800,5.8800,999.3413,7.6212,1.2277,6.0481,1590580072,N
93,1959310,8.2887,1.1007,5.2379,81.8300,10.5700,-2.3800,999.3408,8.1474,1.5253,5.2405,1590580072,N
93,1956045,7.8102,1.0337,6.1208,15.0500,1.5400,-2.1000,999.3414,8.1067,1.4929,5.3125,1590580072,N
94,1953938,8.2146,1.7037,5.2116,-4.6900,4.2700,-2.8700,999.3431,8.0576,1.5377,5.3740,1590580072,N
93,1953641,7.9513,0.9476,5.9031,-6.9300,5.2500,-4.4800,999.3444,7.9274,1.4240,5.5945,1590580072,N
93,1953483,7.9968,1.3950,5.7763,3.4300,-3.5000,-4.3400,999.3452,7.9180,1.4516,5.6007,1590580072,N
94,1954389,7.9944,1.4046,5.8457,11.6900,-6.6500,0.2800,999.3456,7.9932,1.4740,5.4870,1590580072,N
93,1955387,8.2528,1.7922,5.1278,28.2800,-13.4400,0.4200,999.3461,8.2076,1.6198,5.1168,1590580072,N
94,1952285,8.5759,1.2634,4.0845,41.9300,-0.8400,-0.2800,999.3466,8.4337,1.6868,4.7115,1590580073,N
94,1949661,8.1619,2.8905,5.3264,54.4600,9.1700,-0.7700,999.3470,8.3615,2.0988,4.6745,1590580073,N
94,1950377,8.1595,2.4479,5.1111,-2.2400,-1.4700,3.4300,999.3470,8.3229,2.1316,4.7281,1590580073,N
94,1951300,8.2744,2.6225,4.8239,4.3400,0.4200,-1.1200,999.3469,8.2897,2.2469,4.7331,1590580073,N
94,1952485,8.2146,2.7876,5.0082,7.7700,1.4700,-0.9800,999.3469,8.2386,2.3792,4.7577,1590580073,N
94,1954610,8.1308,2.6034,4.9101,0.0700,0.2800,-0.7700,999.3467,8.2049,2.4285,4.7909,1590580073,N
94,1954058,8.1452,2.4909,4.8957,-1.2600,-0.8400,-0.7700,999.3454,8.1885,2.4402,4.8128,1590580073,N
94,1951771,8.1835,2.6584,4.9268,2.9400,-0.0700,1.9600,999.3441,8.1841,2.4747,4.8027,1590580073,N
94,1952465,8.0255,2.8283,4.9962,4.3400,-1.1200,3.2200,999.3430,8.1702,2.5339,4.7955,1590580073,N
94,1954259,8.2026,2.6106,4.7689,0.9800,-0.7000,0.0700,999.3426,8.1761,2.5494,4.7773,1590580073,N
94,1955814,8.1667,2.7781,4.8766,0.0700,-0.1400,-0.4900,999.3422,8.1555,2.5929,4.7890,1590580074,N
94,1957671,8.2672,2.6441,4.7856,4.1300,0.6300,0.7700,999.3422,8.1670,2.6071,4.7616,1590580074,N
94,1959255,8.1356,2.5412,4.8407,-6.5800,-0.9800,0.2100,999.3427,8.1579,2.5692,4.7977,1590580074,N
94,1956522,8.2481,2.4646,4.9077,-5.1100,0.4200,0.7000,999.3429,8.1527,2.5216,4.8318,1590580074,N
94,1955397,8.2337,2.5149,4.8933,-4.3400,-0.9800,-0.7000,999.3433,8.1469,2.5043,4.8504,1590580074,N
94,1956123,8.2241,2.8570,4.9842,2.2400,1.6100,1.6100,999.3436,8.1298,2.5605,4.8499,1590580074,N
94,1956663,8.1882,2.6512,4.9508,-4.7600,-1.0500,-0.4900,999.3445,8.1161,2.5579,4.8740,1590580074,N
94,1956765,8.2552,2.7470,4.8598,-1.9600,-0.2100,-1.1200,999.3450,8.1101,2.5876,4.8683,1590580074,N
94,1957516,8.1787,2.6728,4.8909,-2.3800,0.7000,-1.6100,999.3455,8.0936,2.6032,4.8875,1590580074,N
94,1954867,8.2026,2.5603,4.8024,-3.1500,-2.0300,-2.1000,999.3463,8.1033,2.5937,4.8764,1590580074,N
94,1952235,8.1906,2.6225,4.8766,-4.5500,-0.6300,-0.4900,999.3477,8.1005,2.5822,4.8871,1590580075,N
94,1952136,8.2409,2.5890,4.8718,-1.7500,-0.7700,0.1400,999.3484,8.1118,2.5701,4.8748,1590580075,N
94,1952798,7.4465,-3.7424,12.4857,-1.4000,-0.2800,0.5600,999.3483,8.1222,1.9888,5.1231,1590580075,N
94,1953355,9.7843,-6.6138,4.6181,-1.0500,0.4900,-0.2800,999.3478,8.3435,1.2495,4.9996,1590580075,N
94,1954696,7.0421,7.5996,6.6568,-0.9800,-0.4200,-0.4900,999.3479,8.0362,1.7827,5.3303,1590580075,N
94,1954772,9.9159,-5.4054,2.4742,-1.8900,0.7700,0.4200,999.3483,8.2048,1.0748,5.2627,1590580075,N
94,1950910,8.2074,2.5651,4.9125,0.2100,0.7700,0.3500,999.3493,8.2161,1.3623,5.1778,1590580075,N
94,1949388,8.2409,2.5125,4.8622,0.0700,0.0700,0.2100,999.3503,8.2232,1.5845,5.1028,1590580075,N
94,1949881,8.2385,2.4957,4.9005,0.2800,-0.4200,0.2100,999.3511,8.2220,1.7593,5.0472,1590580075,N
94,1950076,8.2122,2.6584,4.8885,0.0700,-0.0700,-0.4200,999.3522,8.2058,1.9342,5.0095,1590580075,N
94,1951120,9.1573,1.8927,4.1492,40.0400,3.2900,-0.5600,999.3530,8.3934,2.0497,4.6389,1590580075,N
94,1962029,9.5115,3.9601,4.5296,143.0800,89.4600,13.1600,999.3533,8.1279,2.8264,4.7030,1590580076,N
94,1985999,7.8844,6.2883,4.9412,152.4600,120.7500,6.7200,999.3525,7.3532,4.0941,5.0338,1590580076,N
94,1997696,5.4891,4.7186,5.6518,122.5000,118.1600,0.4900,999.3521,6.4656,5.0560,5.3669,1590580076,N
94,2005157,3.6778,5.2953,4.6086,44.1700,72.8000,-2.5900,999.3514,5.8505,5.5446,5.5856,1590580076,N
94,2010743,3.4839,6.4152,5.7811,32.5500,38.2900,-2.8700,999.3506,5.2479,5.9811,5.7321,1590580076,N
94,2012697,3.1083,7.2646,4.9771,32.7600,27.4400,-16.1000,999.3502,4.6879,6.5122,5.6378,1590580076,N
94,2015015,2.7398,7.9274,5.3575,30.1000,23.1700,-19.1800,999.3495,4.1147,6.9568,5.5536,1590580076,N
94,2017796,2.2277,8.2792,4.6062,23.9400,17.2900,-24.9200,999.3488,3.5673,7.4014,5.3538,1590580076,N
94,2016698,2.0818,8.4538,4.0439,22.4700,12.3200,-21.0000,999.3474,3.1435,7.8084,5.0317,1590580076,N
94,2014390,2.1631,8.4108,3.6108,21.2800,8.4000,-4.2700,999.3458,2.9319,8.1077,4.6733,1590580077,N
94,2014939,2.0770,8.4778,3.5007,15.3300,3.0800,-2.8000,999.3446,2.7593,8.3366,4.3655,1590580077,N
94,2015684,2.0626,8.6548,3.3141,8.7500,2.0300,-5.1800,999.3434,2.5986,8.5252,4.0913,1590580077,N
94,2016737,1.9071,8.9300,3.2542,-1.4700,-1.9600,-4.6900,999.3430,2.4499,8.6524,3.9120,1590580077,N
94,2018243,1.7157,8.9396,3.3619,-4.5500,-1.4700,-3.7800,999.3426,2.2954,8.7308,3.8306,1590580077,N
94,2017973,1.7180,8.9707,3.5749,-0.4200,-2.5200,-4.8300,999.3427,2.1532,8.8006,3.7528,1590580077,N
94,2014377,1.8449,8.6572,3.2853,-25.1300,-3.2200,1.2600,999.3420,2.1656,8.7422,3.8799,1590580077,N
94,2012820,1.4812,8.9659,3.7639,-4.2700,0.2100,1.2600,999.3409,2.0431,8.7584,3.9099,1590580077,N
94,2013018,1.6654,9.0808,3.7089,-1.5400,-1.6800,-2.3800,999.3403,1.9518,8.8039,3.8539,1590580077,N
93,2013117,2.1511,8.5902,3.4505,-0.4200,-1.6800,1.8200,999.3399,2.0243,8.8109,3.8001,1590580077,N
93,2013766,1.4022,8.8199,3.9027,-5.0400,-2.3800,-2.5900,999.3391,1.8953,8.8204,3.8444,1590580078,N
93,2014737,1.5003,8.5376,3.9577,-14.9800,-7.6300,-8.1200,999.3384,1.8055,8.8046,3.9230,1590580078,N
93,2011318,1.6343,9.8943,3.9218,-35.0000,-5.1100,-0.9100,999.3380,1.8001,8.7195,4.1109,1590580078,N
93,2005032,1.4142,7.0205,4.9316,-53.1300,5.8800,9.1700,999.3375,1.9153,8.3220,4.8215,1590580078,N
93,2001573,1.7731,8.2911,5.2427,-5.5300,1.0500,3.7100,999.3376,1.9099,8.2456,4.9531,1590580078,N
93,1999897,1.9741,8.4682,5.2235,-7.8400,-0.5600,1.7500,999.3381,1.9313,8.1882,5.0392,1590580078,N
93,1998949,1.5649,8.1595,5.3743,-2.3800,2.5900,4.3400,999.3381,1.8777,8.1308,5.1512,1590580078,N
93,1998600,1.5505,8.0758,5.2355,3.1500,2.2400,-0.2100,999.3378,1.8021,8.1434,5.1583,1590580078,N
93,1998038,1.7444,7.8939,4.9173,-5.5300,-3.2900,-1.0500,999.3366,1.8118,8.1393,5.1613,1590580078,N
93,1992198,1.7037,8.2002,5.4341,2.7300,3.1500,-0.7700,999.3359,1.7665,8.1335,5.1861,1590580078,N
93,1988893,1.7157,7.9920,5.5035,4.9000,3.2200,3.3600,999.3351,1.7628,8.0924,5.2513,1590580079,N
93,1988403,1.7683,7.8102,5.4102,10.8500,-0.4900,-8.0500,999.3345,1.7106,8.1666,5.1527,1590580079,N
93,1988448,1.4070,8.2600,5.4413,0.4900,-4.3400,-9.3800,999.3341,1.5961,8.2353,5.0797,1590580079,N
93,1988769,1.4979,7.9179,4.7809,5.6000,-8.0500,3.5700,999.3337,1.6358,8.2732,5.0048,1590580079,N
93,1990021,1.6391,8.3103,4.7880,5.8800,-4.2700,1.8200,999.3329,1.6601,8.3222,4.9148,1590580079,N
93,1989362,1.6606,8.2816,4.9460,0.1400,2.5200,2.1700,999.3322,1.6676,8.2973,4.9542,1590580079,N
93,1985526,1.7348,8.1547,5.0010,1.1900,-1.6800,-3.7800,999.3321,1.6627,8.3169,4.9229,1590580079,N
93,1984302,1.7180,8.4012,5.0967,-15.8900,-0.3500,1.4700,999.3322,1.6922,8.2212,5.0714,1590580079,N
93,1983901,1.6726,7.5541,5.2283,-34.3700,0.8400,-6.0200,999.3317,1.6897,8.0303,5.3693,1590580079,N
93,1982901,1.5314,8.0088,5.7691,8.7500,-1.7500,0.0700,999.3315,1.6537,8.0519,5.3481,1590580080,N
93,1982945,1.6343,7.9801,5.4891,4.5500,1.4700,7.8400,999.3312,1.6918,8.0010,5.4122,1590580080,N
93,1983339,1.6654,7.8365,5.4365,-4.2000,1.4700,1.6800,999.3315,1.6989,7.9501,5.4845,1590580080,N
93,1978799,1.6917,7.9418,5.5418,-2.5200,1.4000,0.4200,999.3313,1.6957,7.9234,5.5240,1590580080,N
93,1976023,1.4429,7.5829,5.7428,2.3800,1.8900,0.9800,999.3317,1.6493,7.8860,5.5912,1590580080,N
93,1975986,0.4092,8.0279,5.5825,0.9100,3.5000,12.4600,999.3325,1.4625,7.8130,5.7435,1590580080,N
93,1975947,1.9167,7.8221,5.1374,0.6300,-0.3500,-4.9700,999.3331,1.5355,7.9104,5.5891,1590580080,N
93,1976476,1.6056,8.0327,5.1900,0.6300,-0.3500,0.3500,999.3345,1.5572,7.9579,5.5152,1590580080,N
93,1977854,1.6630,8.0207,5.1876,-0.9800,-0.3500,-0.4200,999.3358,1.5819,7.9902,5.4612,1590580080,N
93,1976501,1.7444,8.0231,5.1637,-4.4100,1.1900,-0.4200,999.3373,1.6143,7.9922,5.4487,1590580080,N
93,1973136,1.6558,8.0686,5.2810,3.9200,0.7000,0.5600,999.3381,1.6224,8.0252,5.3976,1590580080,N
93,1972416,1.7252,8.0423,5.1159,5.2500,-0.3500,0.4200,999.3383,1.6483,8.0750,5.3149,1590580081,N
93,1973120,1.7180,8.7027,4.9460,16.5900,-0.7000,-2.5200,999.3384,1.6266,8.2444,5.0551,1590580081,N
92,1974518,1.5314,8.6501,4.8048,7.8400,2.2400,-5.8100,999.3380,1.5497,8.3582,4.8897,1590580081,N
93,1977115,2.1344,8.9492,4.3573,10.5700,5.7400,10.2900,999.3381,1.6995,8.3944,4.7766,1590580081,N
92,1979983,2.1440,8.6955,4.5248,15.5400,0.9800,2.8000,999.3389,1.7812,8.4736,4.6038,1590580081,N
92,1978319,1.7133,8.1595,4.3669,-2.7300,-8.5400,8.2600,999.3391,1.8670,8.4424,4.6272,1590580081,N
92,1977615,2.5962,8.7888,4.3190,0.2100,-2.1000,6.7200,999.3396,2.0488,8.4365,4.5605,1590580081,N
92,1979264,1.8185,8.4371,4.6684,5.4600,10.0800,7.0700,999.3398,2.0160,8.4003,4.6412,1590580081,N
92,1981629,1.9358,8.5519,4.4028,55.3000,0.4200,32.8300,999.3401,2.1691,8.5059,4.3720,1590580081,N
92,1981446,4.1970,8.6189,2.4024,63.6300,-35.5600,30.1000,999.3401,2.7490,8.7837,3.3853,1590580081,N
92,1979400,3.3547,8.5687,2.5484,-26.2500,-9.6600,-5.5300,999.3399,2.9160,8.7426,3.3517,1590580082,N
92,1979470,2.2612,8.2911,3.8931,-47.9500,-0.9100,-29.4700,999.3407,2.6961,8.6532,3.7447,1590580082,N
92,1980677,2.5866,8.8415,5.2403,-120.6100,48.0200,-8.4700,999.3420,2.6258,8.0133,5.0062,1590580082,N
92,1982901,0.8734,10.0403,4.1994,-92.1900,-90.0200,-70.1400,999.3429,2.3754,8.1197,4.9597,1590580082,N
92,1983520,3.9290,5.2881,4.7761,-195.8600,-258.1600,-9.5200,999.3435,4.2730,6.8463,5.5713,1590580082,N
92,1985506,11.0261,3.1944,5.8098,-148.5400,-230.9300,-38.1500,999.3442,5.8101,5.9435,5.2045,1590580082,N
92,1985252,9.6359,0.6820,4.1228,-89.8800,-53.7600,-19.6700,999.3439,6.6294,4.8678,5.3410,1590580082,N
92,1984899,7.5829,2.4574,5.4580,66.1500,15.0500,-13.3000,999.3441,6.6936,4.8039,5.3187,1590580082,N
92,1982916,7.7695,3.6562,3.1872,62.5100,-12.3200,-56.3500,999.3429,6.8012,5.2925,4.6800,1590580082,N
92,1977132,9.7149,1.9095,5.0704,-103.2500,34.5100,-21.0700,999.3422,6.6615,4.5452,5.5799,1590580082,N
92,1972773,6.3745,4.2951,6.5180,-6.3700,-34.6500,-14.7700,999.3414,6.6824,4.5155,5.5791,1590580082,N
92,1951412,8.4730,3.1992,5.3216,-49.9100,-18.0600,-2.1700,999.3411,6.9116,4.0323,5.6693,1590580083,N
92,1939431,8.0997,3.3739,5.2283,6.8600,4.4100,-4.9000,999.3397,7.0238,3.9559,5.5845,1590580083,N
92,1922059,7.9418,3.0006,5.0752,-4.7600,4.4100,5.1100,999.3389,7.1644,3.7319,5.5601,1590580083,N
92,1914793,7.5470,3.1872,5.3049,3.5700,3.7800,0.3500,999.3385,7.2277,3.6465,5.5347,1590580083,N
92,1910264,7.9202,3.2662,5.1565,0.6300,-0.7700,0.6300,999.3370,7.3405,3.5664,5.4376,1590580083,N
92,1905560,7.4943,3.1202,5.4676,25.9000,19.4600,3.6400,999.3365,7.3309,3.5778,5.4431,1590580083,N
92,1916606,8.4610,4.2162,5.1446,61.6700,72.0300,8.7500,999.3370,7.1534,3.9100,5.4508,1590580083,N
93,1941808,6.4439,3.2495,6.3171,60.9700,72.0300,59.9900,999.3369,7.0243,3.7881,5.6992,1590580083,N
92,1951110,4.9795,7.4680,5.7141,209.5800,112.2100,37.1700,999.3362,6.2145,5.3232,5.4050,1590580083,N
93,1955540,5.1374,7.9705,4.1970,164.4300,124.6000,22.6800,999.3359,5.5156,6.4624,4.8976,1590580084,N
93,1961776,4.1133,7.1282,4.6875,93.1000,118.1600,43.3300,999.3354,5.0142,6.8303,4.9371,1590580084,N
93,1968101,3.8453,7.0971,5.3958,29.7500,80.1500,18.0600,999.3356,4.5415,6.9099,5.2725,1590580084,N
93,1976584,4.8239,7.0158,5.2307,13.2300,48.6500,27.9300,999.3364,4.4856,6.8084,5.4494,1590580084,N
93,1991853,7.0158,7.7288,5.2977,8.1200,24.2900,18.5500,999.3380,4.6113,6.7266,5.4460,1590580084,N
93,2005287,3.9553,7.9825,5.7882,23.5900,28.0000,-4.4100,999.3388,4.2854,6.9406,5.4438,1590580084,N
93,2014978,2.4909,7.8078,5.1757,46.7600,-3.9900,7.5600,999.3400,4.0188,7.3036,5.1650,1590580084,N
93,2023012,4.0606,8.0495,4.1109,21.1400,9.3100,43.6100,999.3405,4.2434,7.3443,4.9219,1590580084,N
93,2029749,4.3813,7.3819,4.4219,8.6800,-0.4900,-2.1700,999.3413,4.2593,7.4410,4.7602,1590580085,N
93,2032373,4.2018,7.9466,4.4243,1.8200,-2.3100,9.3800,999.3417,4.2939,7.4833,4.6619,1590580085,N
93,2036334,4.0152,7.6929,4.2066,-6.7900,19.8800,-3.5000,999.3414,4.1644,7.5250,4.7120,1590580085,N
93,2040773,3.4911,8.2935,4.0128,-15.6800,6.0200,-25.7600,999.3419,3.8774,7.7183,4.6437,1590580085,N
93,2043067,3.9482,11.9976,5.6183,7.3500,7.9100,-3.4300,999.3421,3.6943,7.8617,4.5515,1590580085,N
93,2045053,3.6802,7.4297,4.9101,-2.8700,1.6100,-4.0600,999.3423,3.6745,7.8085,4.6579,1590580085,N
93,2047547,3.5509,7.7240,4.7378,-2.2400,2.8000,-0.2800,999.3418,3.6453,7.7919,4.7083,1590580085,N
93,2049051,3.2877,7.9681,5.0680,-6.1600,1.7500,0.0700,999.3420,3.5636,7.7644,4.8151,1590580085,N
93,2049334,3.4672,7.5924,4.8431,-2.5900,1.1200,1.4000,999.3417,3.5633,7.7343,4.8635,1590580085,N
92,2050737,3.0939,8.2600,4.8048,19.5300,3.9200,-6.0900,999.3411,3.3764,7.9207,4.6939,1590580085,N
93,2053057,2.6154,6.3482,4.8263,-67.4800,0.3500,13.9300,999.3404,3.5209,7.4126,5.3691,1590580085,N
93,2054412,3.5581,7.2503,4.9436,5.8800,-0.2100,-0.1400,999.3405,3.5484,7.4647,5.2780,1590580085,N
92,2055884,3.1896,7.5541,5.3551,-19.8800,2.8700,6.5100,999.3400,3.5232,7.3439,5.4612,1590580085,N
92,2057622,3.4193,7.4154,5.1063,5.5300,-2.2400,-3.7100,999.3390,3.4974,7.4365,5.3513,1590580086,N
92,2058421,3.2279,7.3938,4.9412,5.7400,-0.6300,-0.2100,999.3373,3.4634,7.5144,5.2640,1590580086,N
92,2058158,3.3045,7.4704,5.2140,-0.1400,-0.4200,-4.1300,999.3356,3.4157,7.5437,5.2532,1590580086,N
92,2058767,3.2734,6.0347,5.2331,25.1300,1.8900,-23.4500,999.3342,3.2554,7.7339,5.0754,1590580086,N
92,2060938,3.0341,8.9180,3.7687,41.0200,-3.9200,-30.3800,999.3329,2.9548,8.2700,4.3643,1590580086,N
92,2062497,2.1990,8.8128,3.8907,9.5900,-0.4200,-18.4800,999.3323,2.6504,8.4954,4.1198,1590580086,N
92,2063442,2.7709,8.8654,3.6467,-6.0200,-3.9900,3.7800,999.3322,2.7194,8.5021,4.0606,1590580086,N
92,2064168,2.7206,8.9492,4.0774,-12.1100,-2.2400,4.5500,999.3330,2.7619,8.4516,4.1368,1590580086,N
92,2063920,2.5986,8.5543,4.1276,2.1700,-4.6900,-0.7000,999.3336,2.7318,8.4817,4.0950,1590580086,N
92,2059795,2.5053,8.0806,4.1372,2.0300,-1.7500,-1.9600,999.3351,2.6947,8.4882,4.1060,1590580087,N
91,2057038,2.5316,8.8630,3.9745,-16.4500,5.3900,0.9800,999.3363,2.6714,8.4432,4.2126,1590580087,N
92,2057812,2.2732,8.2026,4.1228,-21.5600,-1.8200,0.5600,999.3377,2.6544,8.3606,4.3845,1590580087,N
91,2059021,2.4215,8.4443,4.3645,-16.2400,-2.1000,3.3600,999.3395,2.6639,8.2908,4.5096,1590580087,N
91,2059713,2.4407,8.1811,4.5775,-10.5000,-2.0300,3.9900,999.3412,2.6755,8.2253,4.6214,1590580087,N
91,2060642,2.7350,8.1428,4.5942,-0.6300,-2.0300,2.2400,999.3425,2.7144,8.2084,4.6287,1590580087,N
91,2060890,2.5651,8.0303,4.5081,-4.4100,-1.0500,0.3500,999.3436,2.7100,8.1935,4.6576,1590580087,N
91,2054229,2.4622,8.3940,4.6947,-1.6800,-0.9800,0.9800,999.3441,2.6660,8.2028,4.6665,1590580087,N
90,2051004,2.6321,8.0734,4.6947,0.2100,1.1200,3.7100,999.3436,2.6864,8.1759,4.7020,1590580087,N
91,2051051,2.8068,7.7671,4.4339,-0.5600,-0.6300,-1.1900,999.3435,2.7312,8.1700,4.6864,1590580087,N
91,2051435,2.6417,8.1236,4.7833,1.8200,-1.6100,-0.2800,999.3432,2.7152,8.1758,4.6855,1590580087,N
90,2053137,2.5220,8.4467,4.8814,3.9900,-1.0500,-0.3500,999.3434,2.6583,8.2074,4.6629,1590580088,N
90,2055543,2.6417,8.0207,4.6732,-3.2200,-1.1200,2.5900,999.3436,2.6895,8.1697,4.7110,1590580088,N
90,2055504,3.1729,8.8199,5.0632,2.6600,-0.7000,3.5000,999.3439,2.7583,8.1562,4.6945,1590580088,N
90,2050710,2.7805,7.9657,4.8814,9.8700,-0.6300,15.5400,999.3442,2.8606,8.1006,4.7294,1590580088,N
90,2049783,2.8403,7.5350,4.3382,3.5700,-2.1000,7.8400,999.3439,2.9523,8.0791,4.7098,1590580088,N
90,2051979,3.1513,7.7504,4.4889,0.2100,-5.1100,-0.6300,999.3445,3.0252,8.0759,4.6689,1590580088,N
90,2054603,3.3308,7.9944,4.6875,-2.1700,-2.0300,3.9900,999.3441,3.1201,8.0267,4.6913,1590580088,N
90,2058081,3.3858,7.6379,4.9460,-0.2800,-4.3400,2.3100,999.3446,3.2122,7.9576,4.7464,1590580088,N
89,2062531,3.3547,7.9394,4.7139,-1.8200,-5.3900,2.9400,999.3455,3.2812,7.9340,4.7387,1590580088,N
89,2063874,3.4337,7.7432,4.2353,12.2500,4.9700,-0.2100,999.3455,3.2987,8.0084,4.5994,1590580089,N
89,2063110,3.8261,8.3127,4.4961,0.9100,0.7000,0.9800,999.3457,3.3772,8.0076,4.5434,1590580089,N
89,2065438,3.3069,7.9585,4.4076,12.8800,2.8000,-1.8900,999.3466,3.3279,8.0860,4.4398,1590580089,N
89,2068537,3.4409,8.1882,4.3980,-0.0700,-0.8400,-0.3500,999.3463,3.3437,8.0916,4.4177,1590580089,N
89,2070530,2.6943,7.1952,4.1372,-4.5500,2.9400,-3.5700,999.3458,3.2769,8.0839,4.4815,1590580089,N
89,2073562,3.2375,8.2098,4.4195,-1.2600,-1.4000,-2.7300,999.3452,3.2532,8.1066,4.4576,1590580089,N
89,2075955,3.1968,7.8987,4.3597,-2.8700,-1.3300,0.0700,999.3442,3.2676,8.0910,4.4753,1590580089,N
88,2075370,3.0724,8.0806,4.1707,-1.1200,-1.3300,-0.7000,999.3434,3.2442,8.1235,4.4334,1590580089,N
89,2075591,3.3308,8.3964,3.9171,-3.9900,1.9600,0.3500,999.3422,3.2648,8.1528,4.3639,1590580089,N
89,2076976,3.6299,9.1645,4.5775,13.5100,-1.0500,1.8900,999.3415,3.2571,8.2262,4.2298,1590580089,N
88,2078959,3.0652,8.1811,4.1611,-1.2600,-2.1000,0.4200,999.3405,3.2393,8.2329,4.2304,1590580089,N
88,2080207,3.0245,8.2481,3.8405,0.4900,-0.2800,-2.7300,999.3396,3.1918,8.2892,4.1560,1590580090,N
88,2081346,3.4792,7.9992,4.3167,-4.9000,-0.3500,1.4000,999.3393,3.2756,8.2157,4.2360,1590580090,N
88,2081412,3.3523,8.8223,4.1611,-15.8200,0.9100,-2.3100,999.3388,3.2702,8.1888,4.2918,1590580090,N
88,2080682,3.1801,7.8269,4.0965,-9.2400,0.9100,-0.9800,999.3386,3.2880,8.1474,4.3566,1590580090,N
88,2081664,3.1705,8.2337,4.2999,0.3500,-0.6300,1.2600,999.3383,3.2740,8.1597,4.3440,1590580090,N
88,2083223,3.2925,7.9394,4.1276,-2.7300,0.2800,0.7000,999.3387,3.3057,8.1450,4.3477,1590580090,N
87,2084274,3.2327,8.1954,4.1970,-0.9800,0.2800,-1.8900,999.3386,3.2820,8.1673,4.3237,1590580090,N
88,2085035,2.5316,7.0660,4.2568,34.2300,-6.6500,-0.0700,999.3393,3.1870,8.3305,4.0762,1590580090,N
88,2086578,3.2399,8.1571,4.3047,3.7800,-0.4200,1.3300,999.3397,3.2035,8.3126,4.0999,1590580090,N
87,2084922,3.2112,8.2217,4.1515,-0.7000,-0.0700,0.0700,999.3393,3.2106,8.2999,4.1200,1590580090,N
88,2084551,3.2518,8.0925,4.1779,-2.3800,-0.5600,0.8400,999.3394,3.2406,8.2672,4.1619,1590580091,N
88,2085478,3.2925,8.0853,4.2640,-0.0700,-0.2100,-0.9800,999.3394,3.2512,8.2504,4.1869,1590580091,N
88,2086245,3.1059,8.2481,4.5368,-15.8200,3.3600,0.7000,999.3400,3.2389,8.1554,4.3782,1590580091,N
87,2087612,3.1848,8.4443,4.2377,-14.0700,-0.4200,-1.5400,999.3402,3.2342,8.1281,4.4322,1590580091,N
88,2088498,3.2160,7.9968,4.2090,-3.1500,-0.4900,3.5000,999.3402,3.2767,8.1071,4.4394,1590580091,N
88,2087957,3.4672,7.8437,4.2401,-2.5200,-0.2100,1.1900,999.3407,3.3457,8.0770,4.4429,1590580091,N
88,2086066,3.3476,8.1739,4.3621,0.2800,-0.2800,-2.1700,999.3414,3.3285,8.1006,4.4126,1590580091,N
88,2086474,3.1011,7.9848,4.1228,-1.9600,0.1400,-1.2600,999.3415,3.2971,8.1248,4.3917,1590580091,N
88,2087602,3.3428,8.2600,4.3262,-11.9000,1.0500,-1.2600,999.3418,3.3087,8.0850,4.4559,1590580091,N
88,2088271,3.2160,7.9418,4.1922,-0.0700,-0.2800,-1.5400,999.3416,3.2988,8.1081,4.4212,1590580091,N
88,2089170,3.4002,7.9633,4.1874,0.3500,-0.2800,0.2100,999.3412,3.3344,8.1115,4.3882,1590580092,N
88,2089969,3.3141,8.2457,4.2592,-0.7000,-0.8400,-1.2600,999.3411,3.3227,8.1335,4.3561,1590580092,N
88,2088111,3.1011,8.5448,3.9529,-14.1400,-2.4500,0.2800,999.3412,3.3112,8.1342,4.3636,1590580092,N
88,2087403,3.5988,9.0784,4.4818,11.6200,-0.1400,0.2800,999.3409,3.2864,8.2171,4.2249,1590580092,N
88,2088685,3.4098,8.0183,4.4028,-2.6600,-0.7700,-0.8400,999.3401,3.3167,8.1770,4.2786,1590580092,N
88,2089302,3.1801,8.1595,4.2449,-1.6800,-0.7700,0.6300,999.3398,3.3044,8.1761,4.2899,1590580092,N
88,2090152,3.2542,8.0566,4.2616,0.6300,-0.1400,0.1400,999.3398,3.3033,8.1760,4.2909,1590580092,N
89,2091228,3.2925,8.1069,4.3645,-1.4000,-1.1200,0.6300,999.3398,3.3140,8.1584,4.3161,1590580092,N
88,2090625,3.2830,8.2146,4.3454,1.1900,-0.1400,0.6300,999.3403,3.3072,8.1641,4.3105,1590580093,N
88,2088498,3.3404,7.9825,4.3023,-0.4900,-0.0700,-0.9800,999.3409,3.3181,8.1537,4.3218,1590580093,N
89,2088659,3.3500,8.0830,4.3119,-0.5600,0.1400,0.0700,999.3416,3.3291,8.1452,4.3293,1590580093,N
89,2089689,3.3763,8.2624,4.4195,-0.8400,0.1400,0.0700,999.3422,3.3297,8.1390,4.3406,1590580093,N
89,2090392,3.2638,7.9968,4.1324,-1.4000,-0.2800,0.5600,999.3433,3.3399,8.1405,4.3299,1590580093,N
89,2091495,3.4170,8.0016,4.2927,-1.6100,-1.1200,0.3500,999.3439,3.3721,8.1216,4.3404,1590580093,N
89,2092409,3.2734,8.0853,4.4243,0.6300,-0.2800,0.4200,999.3446,3.3568,8.1200,4.3552,1590580093,N
89,2089941,3.3667,8.0399,4.2808,0.4200,-0.2100,-0.8400,999.3452,3.3596,8.1258,4.3422,1590580093,N
89,2088419,3.4385,8.1332,4.3645,1.9600,-0.3500,-1.0500,999.3460,3.3626,8.1343,4.3239,1590580093,N
89,2089753,3.8668,8.1212,3.8166,3.3600,-2.0300,-2.7300,999.3469,3.4479,8.1711,4.1851,1590580093,N
89,2090492,3.0843,8.1141,4.2951,12.4600,-12.0400,-4.6900,999.3478,3.3647,8.2645,4.0678,1590580093,N
89,2091915,1.9310,4.0032,4.0510,-21.4200,9.1000,81.6900,999.3487,3.9830,7.5528,4.8231,1590580094,N
89,2092878,4.1492,8.1643,3.7352,-13.7900,3.1500,2.4500,999.3494,4.0471,7.5935,4.7042,1590580094,N
89,2094546,3.4528,8.6979,4.0774,-35.2100,-15.8900,-9.8000,999.3504,3.9673,7.6336,4.7074,1590580094,N
89,2095413,2.6584,8.8463,5.4987,-149.3100,-96.5300,23.0300,999.3518,4.4164,6.8947,5.3971,1590580094,N
90,2093889,5.9079,4.8957,7.2000,-193.9700,-139.1600,64.3300,999.3535,5.7736,5.0997,6.0686,1590580094,N
90,2096552,7.8844,1.2778,5.4150,-54.2500,-142.1700,-46.8300,999.3561,6.6928,4.4083,5.6519,1590580094,N
90,2094737,9.3129,3.7807,1.9765,-82.1100,-119.0700,-97.8600,999.3574,7.2416,4.6829,4.6690,1590580094,N
90,2087576,7.9035,4.8598,1.9549,-69.0900,-30.4500,-70.8400,999.3578,7.2615,4.9359,4.3678,1590580094,N
90,2077527,7.2479,5.6662,2.6512,-9.3800,-8.1200,-45.9200,999.3568,7.1732,5.2848,4.0971,1590580094,N
90,2074612,8.0423,6.4822,3.6706,-223.2300,0.3500,-35.0700,999.3553,6.9306,4.5571,5.2316,1590580094,N
90,2064236,7.0540,3.0604,4.5129,11.6900,29.0500,3.0800,999.3550,6.9418,4.3665,5.3773,1590580094,N
90,2056515,6.6808,3.3260,5.3432,-40.6700,-5.2500,32.9000,999.3551,7.0730,3.8396,5.6036,1590580095,N
90,2030036,7.4632,3.5844,5.2116,-27.8600,-4.4800,9.6600,999.3550,7.1538,3.6184,5.6481,1590580095,N
91,2013948,7.8915,3.6443,5.1111,-21.7700,2.2400,-6.7200,999.3559,7.1723,3.5557,5.6645,1590580095,N
91,2007095,7.5900,3.8070,5.4509,-3.8500,5.3900,0.2100,999.3569,7.1817,3.5681,5.6447,1590580095,N
91,1993672,7.2072,3.4672,5.5753,-3.2900,-3.9200,15.4700,999.3568,7.2798,3.4489,5.5928,1590580095,N
91,1983397,7.4034,3.8955,5.6614,-15.9600,2.0300,-5.1100,999.3572,7.2026,3.4715,5.6781,1590580095,N
91,1981815,7.6522,3.1896,5.7045,-18.2700,3.2900,-1.9600,999.3570,7.1840,3.3321,5.7843,1590580095,N
91,1976304,7.1952,2.7805,5.8313,-16.1700,3.3600,-21.6300,999.3571,7.0425,3.2749,5.9873,1590580095,N
