0,2439976,2.5029,7.6092,4.9484,-1.2600,0.0700,0.6300,999.1677,2.7979,7.9536,5.0082,1590579733,N
0,2440773,2.6249,7.7815,4.8861,-4.2700,-1.8900,0.7700,999.1726,2.7650,7.9390,5.0495,1590579733,N
0,2440625,2.8427,7.9944,5.0345,0.4900,-1.8900,-1.2600,999.1773,2.7771,7.9422,5.0379,1590579733,N
0,125533,2.5914,7.8245,4.9819,1.3300,-1.4000,-0.9800,999.1806,2.7465,7.9612,5.0246,1590579733,N
0,2147483647,2.5962,8.1500,4.8168,3.6400,-2.3800,-0.7700,999.1839,2.7153,8.0232,4.9423,1590579734,N
0,2147483647,2.7972,7.8317,5.0154,1.9600,-0.4900,1.7500,999.1873,2.7483,8.0019,4.9584,1590579734,N
0,1166972,3.1992,8.2744,4.8622,0.0700,-3.1500,9.4500,999.1908,2.8927,7.9657,4.9346,1590579734,N
0,1193187,2.8044,8.1811,5.2786,-0.6300,2.2400,-6.0900,999.1948,2.8098,7.9806,4.9584,1590579734,N
0,1810589,2.4168,7.9226,4.8861,-7.4900,-5.2500,-23.5200,999.1978,2.6107,8.0904,4.8888,1590579734,N
0,1905910,4.2090,8.5687,4.8861,-68.5300,-8.8900,-7.9100,999.2004,2.9264,7.7548,5.2411,1590579734,N
0,1907657,0.2106,6.1854,6.1807,-30.3100,-1.6800,-60.2000,999.2028,2.2216,7.9494,5.2954,1590579734,N
0,1906300,0.1436,5.0680,7.2814,22.7500,5.1800,11.5500,999.2050,1.8781,7.8402,5.5834,1590579734,N
0,1906944,3.1609,6.8339,6.5563,10.7800,10.7100,31.6400,999.2073,2.2852,7.4328,5.9750,1590579734,N
0,2062005,2.2493,7.6307,6.2788,22.4700,12.1100,4.4800,999.2093,2.2273,7.4879,5.9280,1590579734,N
0,2086209,2.5914,6.3242,4.8311,-17.5700,-4.5500,0.5600,999.2111,2.3568,7.3826,6.0094,1590579734,N
0,2077941,0.6269,8.1906,6.3625,15.4700,5.9500,-21.5600,999.2120,1.8382,7.6850,5.8079,1590579735,N
0,2076939,1.2993,8.3079,6.0993,12.8100,-0.5600,3.7100,999.2131,1.7322,7.7692,5.7279,1590579735,N
0,2077614,1.9860,7.5685,5.8576,-0.0700,-7.4200,10.9900,999.2146,1.8798,7.6869,5.7921,1590579735,N
0,2078175,2.3091,7.6834,5.5394,10.5700,-3.9900,3.7800,999.2151,2.0010,7.7442,5.6739,1590579735,N
0,2078447,2.2086,7.8485,5.7069,1.4700,-2.0300,0.7700,999.2158,2.0477,7.7522,5.6463,1590579735,N
0,2078930,1.7276,7.8748,5.1517,-3.8500,-0.5600,1.1200,999.2165,2.0043,7.7909,5.6085,1590579735,N
0,2079170,1.8114,7.5063,5.2977,-5.1800,0.7700,2.2400,999.2175,1.9967,7.7607,5.6528,1590579735,N
0,2079330,2.1081,7.9131,5.8672,-7.5600,-3.7800,10.9200,999.2183,2.0926,7.6537,5.7630,1590579735,N
0,2080098,2.7613,7.5517,5.6279,-3.2200,-2.2400,6.7200,999.2190,2.2757,7.5856,5.7836,1590579735,N
0,2080865,2.0770,7.4417,5.5896,1.9600,3.8500,-3.8500,999.2194,2.2084,7.6202,5.7642,1590579735,N
0,2081137,2.1248,7.7886,5.6877,-2.4500,-1.5400,2.3100,999.2186,2.2101,7.6208,5.7628,1590579736,N
0,2081635,2.4790,7.6403,5.5059,-2.4500,0.7700,1.9600,999.2189,2.2777,7.6103,5.7504,1590579736,N
0,2081987,2.1990,7.6116,5.5825,0.2800,0.1400,-0.1400,999.2189,2.2657,7.6305,5.7283,1590579736,N
0,2082162,2.1846,7.7169,5.6016,1.4000,0.2100,-0.9100,999.2192,2.2435,7.6638,5.6923,1590579736,N
0,2082460,2.3186,7.6499,5.5896,0.4900,-0.8400,-0.2100,999.2199,2.2628,7.6759,5.6684,1590579736,N
0,2083007,2.1655,7.7049,5.5394,-1.4700,-0.8400,-0.9800,999.2207,2.2449,7.6935,5.6516,1590579736,N
0,2083721,2.2253,7.7336,5.8098,0.3500,2.3800,1.0500,999.2215,2.2325,7.6718,5.6859,1590579736,N
0,2083964,2.3139,7.6355,5.6614,3.5000,1.7500,0.1400,999.2214,2.2418,7.6812,5.6695,1590579736,N
0,2084394,2.0530,7.6475,5.5705,-2.3100,0.1400,-0.6300,999.2214,2.2064,7.6850,5.6783,1590579736,N
0,2084899,2.1440,7.7527,5.5442,3.7800,-0.4900,2.6600,999.2217,2.2114,7.7107,5.6414,1590579736,N
0,2085019,2.1990,7.7432,5.5155,0.6300,0.3500,-1.0500,999.2219,2.2031,7.7336,5.6132,1590579737,N
0,2085651,2.0889,7.7551,5.6351,1.6100,0.0700,-0.4200,999.2225,2.1762,7.7480,5.6038,1590579737,N
0,2086297,2.1440,7.7216,5.4963,-0.9800,-0.5600,0.5600,999.2234,2.1799,7.7501,5.5995,1590579737,N
0,2087017,2.1296,7.7527,5.4772,-1.2600,-0.7700,-0.8400,999.2239,2.1720,7.7637,5.5838,1590579737,N
0,2087407,2.1966,7.6905,5.5753,1.3300,-1.1900,0.0700,999.2241,2.1836,7.7682,5.5729,1590579737,N
0,2087639,2.1272,7.7192,5.4700,0.2100,-0.2800,-0.0700,999.2241,2.1776,7.7782,5.5613,1590579737,N
0,2087951,2.1751,7.6834,5.4700,0.2100,-0.4200,1.1200,999.2242,2.1912,7.7753,5.5600,1590579737,N
0,2087859,2.0411,7.8365,5.3456,-1.5400,-0.4200,0.2800,999.2234,2.1700,7.7957,5.5396,1590579737,N
0,2088084,2.1775,7.5709,5.6399,-2.6600,0.9100,0.9800,999.2224,2.1813,7.7469,5.6034,1590579737,N
0,2088316,2.1224,7.5159,5.4915,-0.6300,-0.9800,-0.4900,999.2212,2.1823,7.7439,5.6071,1590579738,N
0,2088566,2.1344,7.6953,5.6399,4.7600,-0.2800,-2.1000,999.2210,2.1591,7.7776,5.5693,1590579738,N
0,2089003,2.1344,7.7982,5.5442,2.3100,0.4900,-0.7000,999.2208,2.1466,7.7972,5.5467,1590579738,N
0,2089296,2.1942,7.6642,5.5729,1.1900,-0.5600,-1.1200,999.2208,2.1542,7.7977,5.5431,1590579738,N
0,2089613,2.0841,7.6522,5.5226,4.6200,-0.9100,0.9800,999.2202,2.1528,7.8125,5.5227,1590579738,N
0,2089663,2.2038,7.7097,5.3719,0.9800,-0.4900,1.3300,999.2201,2.1795,7.8157,5.5077,1590579738,N
0,2089831,2.1272,7.7934,5.4843,-1.6800,-0.4200,0.7000,999.2194,2.1780,7.8063,5.5217,1590579738,N
0,2090178,2.1799,7.8461,5.4843,1.4000,-1.0500,0.4900,999.2191,2.1839,7.8200,5.4999,1590579738,N
0,2090462,2.1440,7.6522,5.3432,0.3500,-0.7700,0.2100,999.2189,2.1902,7.8261,5.4887,1590579738,N
0,2090802,2.1846,7.7575,5.3910,-0.2100,-0.4200,1.0500,999.2186,2.2023,7.8241,5.4867,1590579738,N
0,2091030,2.1583,7.7671,5.4293,-1.4700,-0.2800,0.2100,999.2188,2.2008,7.8185,5.4953,1590579738,N
0,2091298,2.2062,7.8221,5.4293,-0.5600,-0.4200,-0.3500,999.2189,2.2032,7.8247,5.4854,1590579739,N
0,2091057,2.1440,7.7264,5.4820,-0.9800,0.0700,0.0700,999.2186,2.1963,7.8143,5.5031,1590579739,N
0,2091155,2.1799,7.8006,5.4772,-0.5600,-0.4900,0.5600,999.2186,2.2000,7.8114,5.5057,1590579739,N
0,2091738,2.2086,7.7671,5.3551,0.7700,0.4900,-0.2800,999.2178,2.2030,7.8257,5.4841,1590579739,N
0,2091892,2.2014,7.8389,5.4174,-0.0700,-0.2100,-0.2800,999.2180,2.2030,7.8346,5.4714,1590579739,N
0,2092233,2.2493,7.8532,5.4485,0.2100,-0.5600,-0.2800,999.2184,2.2119,7.8405,5.4593,1590579739,N
0,2092533,1.9502,7.6977,5.4843,-1.4700,-1.4700,-0.7000,999.2185,2.1680,7.8381,5.4804,1590579739,N
0,2092732,1.6199,7.7958,5.5394,-14.7700,-12.8100,6.4400,999.2190,2.1598,7.7702,5.5794,1590579739,N
0,2092319,1.9071,7.3125,5.9725,-23.1000,-32.3400,14.0000,999.2193,2.3463,7.5934,5.7451,1590579739,N
0,2092820,1.7659,6.1304,5.1470,-80.5000,-94.7800,42.9800,999.2183,3.1116,7.0244,6.0948,1590579739,N
0,2094619,4.4674,5.9294,6.2548,-141.1900,-92.3300,47.7400,999.2178,4.1592,5.8454,6.6860,1590579740,N
0,2095075,6.2764,3.0006,6.6401,-84.9100,-88.2700,-10.7800,999.2169,5.0235,4.9226,6.8339,1590579740,N
0,2095050,7.0995,3.0700,5.6877,-39.4800,-66.9900,-28.6300,999.2173,5.6420,4.5829,6.5830,1590579740,N
0,2096359,8.1069,4.1157,4.7019,-39.9000,-59.1500,8.0500,999.2172,6.3538,4.3323,6.0853,1590579740,N
0,2097722,12.4929,6.3482,3.1274,1.0500,-28.4200,-6.5100,999.2175,6.8001,4.5194,5.4318,1590579740,N
0,2100414,8.1763,3.6802,5.2044,12.3200,-5.4600,9.5900,999.2172,7.0620,4.3319,5.2471,1590579740,N
0,2101713,8.5735,2.2947,5.9222,-5.2500,-13.2300,22.4700,999.2162,7.3867,3.7411,5.2547,1590579740,N
0,2100794,10.4901,2.0913,5.1446,-0.2100,-44.3800,-32.3400,999.2150,7.6083,3.7046,4.9558,1590579740,N
0,2100589,9.7077,4.2425,2.3617,-54.4600,-55.3700,-68.5300,999.2134,7.6745,3.9726,4.6359,1590579740,N
0,2093283,7.0995,1.8185,1.5386,-89.1800,-25.3400,-62.0900,999.2122,7.6052,3.9206,4.7916,1590579740,N
0,2080355,6.9105,5.4963,3.7208,46.2000,6.4400,-32.6900,999.2108,7.4421,4.5693,4.4617,1590579741,N
0,2075140,9.5521,3.6395,3.8118,127.9600,-14.3500,-38.4300,999.2106,7.4908,5.1587,3.6670,1590579741,N
0,2061263,9.3296,3.3954,3.7543,-26.8800,7.4200,14.2100,999.2112,7.7689,4.6196,3.8043,1590579741,N
0,2044318,8.5256,3.7017,3.8405,19.8800,-16.2400,-34.1600,999.2114,7.7938,4.6841,3.6724,1590579741,N
0,2027040,7.7719,5.4939,3.3858,-22.6800,6.5800,-15.6800,999.2112,7.6594,4.8321,3.7622,1590579741,N
0,1998002,7.9825,4.8120,4.2712,-3.2900,-0.4200,0.7000,999.2112,7.6632,4.7677,3.8359,1590579741,N
0,1956497,7.9753,5.3360,4.0965,-37.8000,-17.7100,13.6500,999.2111,7.7898,4.5441,3.8524,1590579741,N
0,2016270,7.8054,3.9745,4.2162,26.2500,17.2900,-0.8400,999.2113,7.7223,4.5792,3.9456,1590579741,N
0,1991940,6.6138,4.9244,3.8644,92.8200,47.6000,8.6800,999.2114,7.3654,5.1658,3.9033,1590579741,N
0,1937510,6.0562,4.5894,4.6899,57.8200,16.3800,-13.5800,999.2114,7.0250,5.5505,4.0015,1590579741,N
0,1951756,7.2550,6.8100,3.9577,17.7800,-35.0700,5.0400,999.2117,7.1272,5.6639,3.6460,1590579742,N
0,1955027,5.6710,0.2297,2.0889,-53.3400,-21.7700,44.1700,999.2115,7.9198,4.3363,3.8267,1590579742,N
0,1961078,7.1258,4.8598,0.7083,14.0000,-19.2500,105.6300,999.2119,8.5962,3.6112,3.0389,1590579742,N
0,1971621,10.4279,3.8118,-1.8090,-232.7500,-5.4600,-42.7700,999.2115,8.6150,3.2083,3.4144,1590579742,N
0,1977432,8.6237,0.8614,3.3236,-15.4700,38.1500,0.8400,999.2122,8.5639,2.7776,3.8879,1590579742,N
0,1984917,7.2096,2.7230,4.4339,-137.9700,52.5000,27.2300,999.2135,8.0908,2.2757,5.0528,1590579742,N
0,1985844,7.2790,2.4431,6.3242,116.4100,9.5200,3.2900,999.2156,8.1313,2.7012,4.7702,1590579742,N
0,1987964,8.4251,3.4098,5.5729,-3.3600,-4.0600,-15.4000,999.2177,7.9951,2.8759,4.8968,1590579742,N
0,1987853,8.0925,2.3163,5.0656,-5.1100,-4.6200,-0.3500,999.2200,8.0265,2.7415,4.9224,1590579742,N
0,1984044,7.8030,4.1683,4.7761,-13.3000,-3.3600,1.5400,999.2215,7.9623,2.9380,4.9133,1590579742,N
0,1978224,7.7049,3.4433,5.5992,-76.3000,-5.2500,12.5300,999.2234,7.8095,2.6521,5.3055,1590579743,N
0,1971113,8.0853,1.7755,5.3432,-111.6500,0.6300,20.7900,999.2245,7.5567,1.9147,5.9498,1590579743,N
0,1966970,7.8676,0.4020,5.8241,-59.9200,1.4000,15.8200,999.2255,7.1956,1.2530,6.5440,1590579743,N
0,1965156,7.5972,0.9500,6.4845,-21.2800,2.8000,8.1200,999.2264,7.0113,1.0400,6.7771,1590579743,N
0,1964600,7.8006,-0.3876,6.0610,-15.1200,-16.5900,2.5900,999.2275,6.7426,0.6544,7.0908,1590579743,N
0,1965643,8.1835,0.6724,5.4341,22.5400,3.0100,-4.7600,999.2278,7.3359,0.8131,6.4571,1590579743,N
0,1966222,7.9561,0.3876,5.6662,21.1400,-4.9700,-0.1400,999.2278,7.7177,0.8229,5.9942,1590579743,N
0,1961157,8.0710,1.7898,5.6662,84.2800,5.4600,-12.3900,999.2274,8.1487,1.3864,5.2770,1590579743,N
0,1955861,8.1715,1.6606,5.4700,14.2800,0.7700,10.9900,999.2277,8.2483,1.4098,5.1136,1590579743,N
0,1951134,7.9011,1.6223,5.9868,14.7700,0.2100,26.5300,999.2281,8.3798,1.3133,4.9218,1590579743,N
0,1946674,8.1165,1.0600,5.9270,14.7000,-2.1700,37.7300,999.2296,8.6320,1.0256,4.5396,1590579744,N
0,1944134,8.5208,1.0648,5.9079,-21.0000,-14.2100,26.5300,999.2312,8.7880,0.7481,4.2875,1590579744,N
0,1943149,8.4945,-0.2249,4.6947,14.4200,-14.8400,34.5100,999.2325,9.2230,0.2771,3.3210,1590579744,N
0,1937296,8.4203,-0.5001,5.1589,31.9200,-4.1300,24.9900,999.2327,9.4422,-0.0244,2.6485,1590579744,N
0,1931489,8.5998,-1.7180,4.8239,3.9900,3.5700,-5.3200,999.2326,9.6791,-0.3146,1.5449,1590579744,N
0,1928144,8.4682,-0.3159,5.4102,9.6600,-4.1300,-24.8500,999.2324,9.5500,-0.0887,2.2271,1590579744,N
0,1926264,8.5615,0.1316,4.8263,-0.6300,-8.1200,-26.6000,999.2318,9.0163,0.1784,3.8530,1590579744,N
0,1925378,8.7841,1.0457,4.6636,3.0800,-8.6100,-19.3900,999.2327,8.5352,0.5003,4.8033,1590579744,N
0,1925632,8.7960,1.6008,4.5823,9.7300,-1.6800,-7.7000,999.2323,8.5451,0.7930,4.7458,1590579744,N
0,1921361,8.5902,1.1868,5.1398,-5.3900,-1.6100,11.6200,999.2314,8.6061,0.7668,4.6387,1590579744,N
0,1916028,8.8391,0.7848,4.5200,-9.8700,-3.7100,19.5300,999.2308,8.8111,0.5963,4.2638,1590579745,N
0,1914309,8.8032,-0.4403,4.5703,-10.1500,2.0300,19.6000,999.2309,9.1503,0.2077,3.5212,1590579745,N
0,1913412,8.6812,-0.5886,4.9842,2.8700,-0.7000,-0.8400,999.2318,9.3422,0.0605,2.9816,1590579745,N
0,1912831,8.7673,0.0909,4.7067,2.8000,-0.2800,-10.0100,999.2325,8.9765,0.1569,3.9458,1590579745,N
0,1913294,8.7841,0.5910,4.7474,3.7800,-0.7000,-8.8200,999.2334,8.6585,0.3178,4.5934,1590579745,N
0,1911297,8.7003,0.5934,4.8191,3.5700,-0.1400,-2.7300,999.2352,8.6174,0.3999,4.6637,1590579745,N
0,1906615,8.7218,0.6556,4.6804,3.5700,-0.5600,3.2200,999.2379,8.7080,0.4355,4.4890,1590579745,N
0,1904937,8.7338,0.2800,4.8168,-0.3500,0.6300,3.5700,999.2399,8.7529,0.3765,4.4063,1590579745,N
0,1904672,8.7601,0.2225,4.7521,-0.2100,-0.9100,0.2100,999.2416,8.7445,0.3427,4.4257,1590579745,N
0,1904873,8.7793,0.4475,4.7904,0.2100,-0.1400,-1.0500,999.2428,8.6939,0.3702,4.5221,1590579745,N
0,1905592,8.7888,0.4570,4.7450,0.6300,-0.7000,0.9800,999.2443,8.7057,0.3802,4.4985,1590579746,N
0,1906196,8.7529,0.5168,4.7593,2.1000,-2.1700,0.1400,999.2458,8.7122,0.4096,4.4833,1590579746,N
0,1902737,8.7673,0.3374,4.7115,0.5600,-0.2100,-0.4200,999.2463,8.6977,0.3987,4.5124,1590579746,N
0,1900831,8.7864,0.3852,4.7641,0.0700,-0.2100,-0.2100,999.2462,8.6799,0.3962,4.5468,1590579746,N
0,1901192,8.7817,0.3900,4.8024,-0.2100,-0.2800,0.4200,999.2460,8.6717,0.3897,4.5629,1590579746,N
0,1901689,8.8056,0.3948,4.8503,0.2800,-0.3500,-0.0700,999.2463,8.6576,0.3900,4.5895,1590579746,N
0,1902659,8.7697,0.4092,4.7282,-0.2800,-0.3500,0.0700,999.2465,8.6511,0.3911,4.6017,1590579746,N
0,1904634,8.7936,0.4211,4.7641,-0.2800,-0.2100,0.7700,999.2459,8.6571,0.3891,4.5906,1590579746,N
0,1902775,8.7864,0.3637,4.7521,-0.4200,-0.0700,0.4200,999.2456,8.6549,0.3785,4.5957,1590579746,N
0,1900116,8.7194,0.4451,4.7593,0.3500,-0.0700,-0.2800,999.2454,8.6413,0.3935,4.6198,1590579746,N
0,1900252,8.7625,0.3876,4.7234,-0.7000,-0.2100,0.5600,999.2447,8.6433,0.3852,4.6168,1590579747,N
0,1901164,8.7290,0.3733,4.7880,0.2800,-0.4200,0.7700,999.2441,8.6541,0.3768,4.5973,1590579747,N
0,1902275,8.7553,0.3350,4.7569,-0.2800,-0.0700,1.6100,999.2435,8.6784,0.3550,4.5530,1590579747,N
0,1904386,8.7697,0.3015,4.7402,-1.3300,0.2800,0.2800,999.2426,8.6595,0.3378,4.5901,1590579747,N
0,1904935,8.7912,0.3422,4.6828,0.2800,-0.3500,-0.1400,999.2413,8.6593,0.3393,4.5904,1590579747,N
0,1901746,8.7745,0.3302,4.7641,0.5600,-0.4900,0.1400,999.2402,8.6625,0.3366,4.5846,1590579747,N
0,1901079,8.7817,0.3374,4.7091,-0.4200,-0.4200,-0.2800,999.2388,8.6480,0.3365,4.6118,1590579747,N
0,1902107,8.7386,0.4068,4.7498,-0.2800,-0.2100,0.4200,999.2378,8.6467,0.3455,4.6136,1590579747,N
0,1903205,8.7362,0.3015,4.7904,-0.4200,-0.2100,-0.0700,999.2369,8.6313,0.3351,4.6431,1590579747,N
0,1904570,8.7506,0.3111,4.7474,-0.2100,-0.0700,0.2100,999.2361,8.6310,0.3273,4.6442,1590579748,N
0,1906598,8.7888,0.2943,4.8072,-0.0700,-0.2100,0.4900,999.2349,8.6373,0.3157,4.6333,1590579748,N
0,1905762,8.7314,0.3494,4.7617,-0.0700,-0.0700,0.1400,999.2344,8.6333,0.3202,4.6404,1590579748,N
0,1903266,8.7625,0.3565,4.7019,-0.2100,-0.2100,0.1400,999.2341,8.6353,0.3249,4.6365,1590579748,N
0,1903544,8.7577,0.2871,4.7880,0.1400,-0.2100,0.1400,999.2336,8.6352,0.3156,4.6373,1590579748,N
0,1904591,8.7721,0.2895,4.7761,0.1400,-0.3500,0.0700,999.2335,8.6355,0.3091,4.6371,1590579748,N
0,1905888,8.7123,0.3685,4.7785,-0.4900,-0.2800,0.3500,999.2331,8.6299,0.3161,4.6472,1590579748,N
0,1907724,8.7912,0.3398,4.7234,0.3500,-0.2800,0.1400,999.2325,8.6397,0.3195,4.6286,1590579748,N
0,1909846,8.7362,0.2560,4.6708,-0.6300,-0.4200,0.3500,999.2319,8.6436,0.3020,4.6225,1590579748,N
0,1907829,8.7123,0.3087,4.7593,-0.3500,-0.2800,0.8400,999.2311,8.6537,0.2956,4.6039,1590579748,N
96,1906399,8.7147,0.2943,4.7904,-1.0500,-0.4900,0.4900,999.2305,8.6420,0.2881,4.6263,1590579748,N
96,1907115,8.8080,0.3972,4.8120,-28.7000,-2.6600,5.3900,999.2300,8.1062,0.1865,5.5159,1590579749,N
96,1907910,8.6572,-0.4738,4.6516,-25.6900,-2.3800,8.6800,999.2304,9.2611,-0.0598,3.2246,1590579749,N
96,1910487,8.7482,-0.4570,4.4985,8.8900,0.4200,-1.8900,999.2309,9.0237,-0.1066,3.8382,1590579749,N
96,1913212,8.6644,-0.4379,4.7545,7.0700,1.2600,-2.6600,999.2319,8.8661,-0.1358,4.1887,1590579749,N
96,1914646,8.8128,-0.1627,4.7713,22.8200,0.1400,-4.2000,999.2330,7.6150,-0.0459,6.1790,1590579749,N
96,1912525,8.7003,-0.0526,4.8742,9.4500,-3.0100,-4.7600,999.2338,9.4322,0.0041,2.6841,1590579749,N
96,1913102,8.8367,0.3757,4.5607,5.7400,-0.8400,-6.3000,999.2343,8.6526,0.1407,4.6133,1590579749,N
95,1914601,8.6333,0.4499,4.8455,1.2600,1.4000,-2.6600,999.2346,8.5452,0.2234,4.8062,1590579749,N
96,1915235,8.7936,0.4307,4.6612,-2.5900,1.0500,2.8700,999.2355,8.6214,0.2366,4.6675,1590579749,N
96,1916432,8.7075,0.2154,4.8718,-0.8400,0.7000,4.6200,999.2357,8.7548,0.1959,4.4142,1590579749,N
95,1918510,8.7290,0.0766,4.8814,1.2600,-0.2100,3.1500,999.2361,8.8865,0.1510,4.1445,1590579750,N
95,1918330,8.6883,0.0814,4.6397,2.1700,-0.4200,-0.3500,999.2365,8.8853,0.1449,4.1475,1590579750,N
95,1917269,8.7960,0.5240,4.8239,-0.4900,0.4900,0.0700,999.2369,8.7645,0.2172,4.3939,1590579750,N
95,1917775,8.6501,0.2847,4.8215,-0.4900,0.5600,1.5400,999.2374,8.7617,0.2177,4.3995,1590579750,N
95,1918393,8.7171,0.1388,4.7306,-1.3300,-1.2600,1.9600,999.2374,8.8021,0.1834,4.3197,1590579750,N
95,1919555,8.7936,0.0383,4.8239,0.4900,-0.3500,2.1000,999.2372,8.8942,0.1393,4.1284,1590579750,N
95,1921672,8.6477,-0.0837,4.8263,2.8700,-2.9400,-6.2300,999.2372,8.6502,0.1485,4.6177,1590579750,N
95,1924879,8.7266,0.2441,4.6325,6.4400,-1.9600,-11.3400,999.2369,8.3779,0.2628,5.0903,1590579750,N
95,1923224,8.7553,0.8064,4.7210,1.1900,0.2100,-8.1900,999.2369,8.3319,0.4269,5.1544,1590579750,N
95,1922844,8.7242,0.8782,4.6732,1.2600,0.8400,0.7700,999.2365,8.4634,0.5148,4.9271,1590579750,N
94,1924805,8.7864,0.5192,4.8191,-1.0500,0.9100,3.8500,999.2361,8.5397,0.4844,4.7968,1590579751,N
95,1926433,8.7529,0.3996,4.7402,-0.4200,-0.2100,1.9600,999.2346,8.5851,0.4513,4.7184,1590579751,N
95,1927166,8.7147,0.4546,4.7521,0.7700,-0.5600,-0.3500,999.2330,8.5920,0.4552,4.7054,1590579751,N
94,1927805,8.6979,0.5360,4.7019,0.4200,-0.0700,0.0700,999.2315,8.6025,0.4709,4.6846,1590579751,N
94,1926484,8.7769,0.4140,4.7234,-0.7700,-0.1400,1.2600,999.2297,8.6230,0.4471,4.6492,1590579751,N
94,1923596,8.7362,0.5791,4.7282,0.4900,-0.4200,2.3800,999.2280,8.6665,0.4558,4.5667,1590579751,N
94,1922910,8.7745,0.4187,4.6995,-1.2600,-0.4900,3.0100,999.2268,8.7058,0.4218,4.4947,1590579751,N
94,1923530,8.7482,0.3206,4.8526,-0.7700,-0.0700,1.1900,999.2256,8.7006,0.3898,4.5076,1590579751,N
94,1923917,8.7075,0.3637,4.7378,-0.2100,-0.4200,-0.9800,999.2238,8.6645,0.3903,4.5765,1590579751,N
94,1925226,8.6453,0.4403,4.7545,-0.2800,-0.2800,-0.3500,999.2227,8.6396,0.4014,4.6224,1590579751,N
94,1926012,8.7171,0.4116,4.7545,-0.3500,-0.3500,-0.3500,999.2217,8.6232,0.4038,4.6527,1590579752,N
94,1923014,8.7051,0.4164,4.7426,0.2800,-0.6300,-0.0700,999.2220,8.6236,0.4065,4.6518,1590579752,N
94,1921628,8.7817,0.4594,4.7498,0.0700,-0.2800,0.3500,999.2219,8.6307,0.4130,4.6380,1590579752,N
94,1921874,8.7314,0.4235,4.7545,0.2100,-0.1400,0.0700,999.2212,8.6296,0.4139,4.6400,1590579752,N
93,1922425,8.7745,0.4690,4.7569,-0.6300,-0.4900,0.3500,999.2222,8.6283,0.4188,4.6419,1590579752,N
93,1923331,8.7314,0.4164,4.7282,-0.2100,-0.2100,0.3500,999.2233,8.6313,0.4141,4.6367,1590579752,N
93,1924765,8.7123,0.4020,4.6947,-0.0700,-0.2100,-0.1400,999.2238,8.6278,0.4117,4.6434,1590579752,N
93,1922528,8.7458,0.3805,4.7928,-0.9100,-0.1400,0.6300,999.2238,8.6249,0.3972,4.6502,1590579752,N
93,1920357,8.7266,0.4259,4.7856,0.2800,-0.2800,-0.0700,999.2237,8.6207,0.4028,4.6574,1590579752,N
93,1920081,8.7123,0.4953,4.7258,0.2800,-0.5600,0.3500,999.2238,8.6301,0.4182,4.6386,1590579753,N
93,1920860,8.7888,0.4666,4.7306,0.4200,-0.3500,-0.4200,999.2236,8.6269,0.4302,4.6434,1590579753,N
93,1922039,8.7027,0.4762,4.7115,0.0700,-0.0700,0.3500,999.2233,8.6315,0.4361,4.6343,1590579753,N
93,1923807,8.7529,0.4044,4.7785,-0.4900,-0.2100,-0.0700,999.2233,8.6205,0.4275,4.6556,1590579753,N
93,1924662,8.8056,0.4235,4.7139,0.0700,-0.2100,0.2800,999.2239,8.6308,0.4232,4.6369,1590579753,N
93,1922017,8.7290,0.4283,4.7378,-0.0700,-0.4200,0.4200,999.2238,8.6359,0.4198,4.6277,1590579753,N
93,1921430,8.7817,0.3972,4.7976,-0.1400,-0.1400,0.2100,999.2238,8.6321,0.4117,4.6355,1590579753,N
93,1922096,8.7649,0.4283,4.7210,-0.2100,-0.3500,-0.1400,999.2230,8.6276,0.4140,4.6437,1590579753,N
92,1922997,8.7673,0.4211,4.7474,-0.2100,-0.3500,0.2800,999.2222,8.6300,0.4114,4.6394,1590579753,N
93,1924360,8.8008,0.3541,4.7641,-0.1400,-0.3500,-0.4200,999.2218,8.6197,0.4010,4.6594,1590579753,N
93,1925990,8.7625,0.5049,4.7426,0.2100,-0.4900,-0.3500,999.2213,8.6162,0.4230,4.6639,1590579753,N
92,1924902,8.7290,0.4403,4.7426,-0.7000,-0.3500,0.6300,999.2208,8.6211,0.4188,4.6553,1590579754,N
93,1923149,8.7458,0.4379,4.7545,-0.0700,-0.3500,-0.0700,999.2199,8.6178,0.4214,4.6611,1590579754,N
92,1923773,8.8056,0.4881,4.6899,-0.0700,-0.2800,0.2100,999.2193,8.6281,0.4313,4.6412,1590579754,N
92,1924500,8.6931,0.3996,4.7785,-0.0700,-0.2800,0.2100,999.2191,8.6245,0.4222,4.6486,1590579754,N
92,1925489,8.7218,0.4211,4.7474,-0.2100,-0.2800,0.2100,999.2204,8.6239,0.4188,4.6501,1590579754,N
92,1927070,8.7314,0.4283,4.8072,0.1400,-0.3500,0.1400,999.2223,8.6213,0.4185,4.6549,1590579754,N
92,1928420,8.7434,0.3972,4.7282,-0.0700,-0.2800,-0.0700,999.2230,8.6201,0.4134,4.6576,1590579754,N
92,1926042,8.6907,0.4810,4.7019,0.2100,-0.4900,0.1400,999.2243,8.6259,0.4255,4.6458,1590579754,N
92,1925252,8.7218,0.4690,4.7641,0.2100,-0.2800,0.2800,999.2261,8.6283,0.4313,4.6407,1590579754,N
92,1926154,8.7362,0.4594,4.7617,-0.4200,-0.4200,-0.1400,999.2279,8.6181,0.4353,4.6593,1590579754,N
92,1926782,8.7386,0.4451,4.7713,-0.4200,-0.5600,0.2100,999.2289,8.6164,0.4331,4.6626,1590579755,N
92,1928068,8.6477,0.5360,4.7402,0.4900,-0.1400,-3.3600,999.2300,8.5569,0.4778,4.7666,1590579755,N
92,1929481,8.7529,0.5551,4.6588,-0.6300,1.3300,2.1700,999.2303,8.6012,0.4754,4.6866,1590579755,N
92,1928582,8.8080,0.4044,4.8550,0.2800,-0.9100,2.2400,999.2319,8.6433,0.4436,4.6115,1590579755,N
92,1926829,8.7482,0.3254,4.6756,-0.8400,0.2800,3.9200,999.2339,8.7100,0.3885,4.4895,1590579755,N
92,1927050,8.7434,0.2489,4.8048,-0.9800,-0.4200,0.9800,999.2354,8.7070,0.3500,4.4984,1590579755,N
92,1927864,8.7482,0.4379,4.7617,-0.0700,-0.4200,0.4900,999.2369,8.6959,0.3624,4.5189,1590579755,N
92,1928759,8.6955,0.3254,4.8096,-0.9800,0.3500,2.3800,999.2385,8.7156,0.3344,4.4830,1590579755,N
92,1930212,8.7482,0.2991,4.6995,0.1400,-0.4900,-0.4200,999.2405,8.6964,0.3299,4.5204,1590579755,N
92,1931610,8.7625,0.3972,4.7976,-0.0700,-0.2100,0.4200,999.2417,8.6844,0.3386,4.5428,1590579755,N
92,1929354,8.7864,0.2871,4.8263,-1.2600,-0.0700,0.7000,999.2432,8.6712,0.3188,4.5693,1590579756,N
92,1928112,8.7817,0.3254,4.8120,0.4200,0.5600,1.8200,999.2448,8.7034,0.3067,4.5086,1590579756,N
92,1928616,8.7553,0.3781,4.7330,-3.7800,0.3500,4.9000,999.2460,8.7630,0.2741,4.3938,1590579756,N
92,1929388,8.7936,0.0550,4.7617,-4.3400,0.8400,11.5500,999.2469,9.0879,0.1290,3.6829,1590579756,N
92,1930773,8.5950,-0.3111,4.8766,-2.5900,0.2800,9.1700,999.2469,9.6527,-0.0456,1.7305,1590579756,N
92,1932473,8.7601,-0.0622,4.8790,-0.0700,-0.6300,1.7500,999.2473,9.7368,-0.0627,1.1664,1590579756,N
92,1932855,8.7386,-0.3757,4.8861,-1.2600,-0.4900,2.7300,999.2476,6.8434,-0.0964,7.0234,1590579756,N
92,1930496,8.6740,-0.4116,4.8933,0.7700,-0.5600,-1.8200,999.2461,7.7840,-0.1586,5.9628,1590579756,N
92,1930008,8.7338,-0.1220,4.8503,1.7500,-1.4000,-4.2700,999.2441,8.0887,-0.1213,5.5434,1590579756,N
92,1930304,8.7960,-0.1699,4.7904,6.8600,-0.8400,-6.3700,999.2421,8.3065,-0.0688,5.2123,1590579756,N
92,1930753,8.5256,0.4403,4.7689,5.2500,-2.3100,-7.3500,999.2398,8.3217,0.0975,5.1874,1590579757,N
92,1931683,8.7266,0.6102,4.7019,0.7000,-1.6100,-6.7900,999.2375,8.2766,0.2457,5.2544,1590579757,N
92,1933205,8.8702,0.3422,4.6564,0.2800,-0.2800,1.6100,999.2354,8.4529,0.2549,4.9653,1590579757,N
92,1931597,8.5639,0.0646,5.0752,1.6100,-1.8200,-1.1900,999.2333,8.4384,0.2295,4.9911,1590579757,N
92,1930988,8.6477,0.1244,4.9077,9.5900,-4.0600,-6.3700,999.2318,8.4659,0.2787,4.9418,1590579757,N
92,1937206,9.3105,-0.0957,5.1302,23.2400,-8.6100,-10.6400,999.2348,8.6049,0.3424,4.6913,1590579757,N
91,1943320,8.2002,1.1557,3.5246,3.2900,-5.8100,-21.7000,999.2371,8.4969,0.6909,4.8473,1590579757,N
92,1947489,8.9922,1.4955,3.7543,16.9400,-17.0100,-27.0900,999.2376,8.5958,1.0843,4.5942,1590579757,N
91,1950665,8.8511,2.0674,4.1611,6.3700,-2.5200,-21.0700,999.2377,8.5522,1.4318,4.5804,1590579757,N
91,1948633,8.7817,2.5627,4.0822,-5.1800,2.5200,-5.4600,999.2383,8.5448,1.6681,4.5137,1590579758,N
92,1944682,8.7242,2.3809,4.4028,-2.3100,2.6600,5.8800,999.2387,8.5671,1.7497,4.4401,1590579758,N
91,1942478,8.7506,2.0243,4.3382,-0.3500,0.2100,9.0300,999.2383,8.6257,1.7319,4.3322,1590579758,N
91,1941119,8.7984,1.7252,4.1898,-1.3300,-0.3500,6.5800,999.2386,8.6791,1.6759,4.2468,1590579758,N
91,1940424,8.7697,1.7180,4.2449,-0.1400,-0.1400,1.7500,999.2385,8.6917,1.6680,4.2241,1590579758,N
91,1940681,8.8726,1.7922,4.3095,0.1400,-0.2800,1.7500,999.2379,8.7001,1.6721,4.2052,1590579758,N
91,1940084,8.8463,1.7827,4.2162,0.2100,-0.2800,0.4200,999.2372,8.7059,1.6858,4.1875,1590579758,N
92,1936490,8.8199,1.8855,4.2449,-0.5600,0.2800,3.9200,999.2357,8.7186,1.6894,4.1596,1590579758,N
91,1935163,8.8654,1.6893,4.3095,-1.5400,0.2100,6.5800,999.2331,8.7445,1.6301,4.1287,1590579758,N
91,1934921,8.8487,1.4405,4.2855,-1.1200,0.3500,4.5500,999.2311,8.7641,1.5518,4.1174,1590579758,N
91,1934994,8.8534,1.4429,4.2568,-0.6300,0.3500,2.5200,999.2302,8.7721,1.5062,4.1173,1590579758,N
92,1935323,8.9013,1.4740,4.2377,0.2100,-0.0700,1.3300,999.2291,8.7774,1.4854,4.1135,1590579759,N
91,1936371,8.8319,1.3926,4.2616,-0.8400,0.2100,2.5900,999.2280,8.7836,1.4428,4.1154,1590579759,N
91,1934799,8.8678,1.3783,4.3095,-0.1400,0.0700,1.3300,999.2271,8.7818,1.4156,4.1287,1590579759,N
92,1932276,8.8391,1.3448,4.2903,-0.0700,-0.7000,0.4900,999.2267,8.7798,1.3938,4.1403,1590579759,N
91,1931889,8.8702,1.4046,4.2975,0.1400,-0.4200,0.3500,999.2261,8.7756,1.3891,4.1509,1590579759,N
91,1932133,8.8750,1.4524,4.3167,0.0700,-0.2800,1.0500,999.2260,8.7729,1.3890,4.1567,1590579759,N
91,1932495,8.8104,1.3974,4.2999,1.8900,-1.3300,2.1700,999.2256,8.7854,1.3751,4.1348,1590579759,N
91,1933756,8.8463,1.4094,4.3143,-0.2100,-0.2100,0.0700,999.2252,8.7745,1.3770,4.1573,1590579759,N
91,1934544,8.9037,1.2969,4.3334,-0.7700,0.1400,0.6300,999.2253,8.7703,1.3498,4.1750,1590579759,N
91,1931608,8.8702,1.3017,4.3023,1.0500,-0.4900,0.4900,999.2255,8.7733,1.3351,4.1734,1590579759,N
91,1930000,8.8223,1.3543,4.3119,0.6300,-0.7000,0.3500,999.2256,8.7707,1.3344,4.1790,1590579760,N
91,1930369,8.8774,1.2634,4.2760,0.6300,-0.7700,0.4900,999.2260,8.7771,1.3140,4.1722,1590579760,N
91,1930572,8.7888,1.3208,4.2927,0.3500,-0.1400,0.3500,999.2255,8.7718,1.3119,4.1839,1590579760,N
91,1931472,8.8678,1.3376,4.2736,0.1400,-0.4200,0.3500,999.2253,8.7724,1.3109,4.1830,1590579760,N
91,1932824,8.8893,1.3280,4.2712,0.1400,-0.5600,0.3500,999.2255,8.7747,1.3077,4.1792,1590579760,N
91,1932560,8.8582,1.4022,4.2233,-0.2800,-0.5600,0.3500,999.2250,8.7760,1.3197,4.1726,1590579760,N
91,1929762,8.8893,1.3256,4.3621,-0.2100,-0.4900,0.6300,999.2245,8.7715,1.3104,4.1849,1590579760,N
91,1929054,8.8941,1.3184,4.3095,-0.2100,-0.2100,0.4900,999.2239,8.7702,1.3033,4.1899,1590579760,N
91,1929579,8.8247,1.5769,4.3358,0.9800,-1.1900,2.6600,999.2231,8.7770,1.3345,4.1657,1590579760,N
91,1932118,8.7314,0.5599,5.6830,18.6900,-15.3300,-1.4700,999.2231,8.8030,1.2276,4.1437,1590579760,N
91,1942572,7.9753,-0.3709,4.2018,49.7700,-91.3500,-43.9600,999.2238,9.0121,1.2719,3.6516,1590579761,N
91,1948352,9.5498,3.6227,-0.0742,116.3400,-80.9200,-41.5800,999.2244,9.3964,2.0355,1.9325,1590579761,N
91,1946220,9.0449,4.3549,-1.9214,-33.4600,-45.1500,-21.9100,999.2253,9.5149,2.1594,0.9873,1590579761,N
91,1940135,9.3344,3.5677,-0.8303,-92.5400,19.5300,-7.4900,999.2263,9.4784,2.3038,1.0108,1590579761,N
91,1938822,8.8630,3.0820,1.5745,-71.3300,40.6000,-13.5100,999.2274,9.2796,2.6761,1.7022,1590579761,N
91,1938935,8.6070,4.3884,3.1418,14.2800,5.8100,-19.8100,999.2293,9.0376,3.1968,2.0668,1590579761,N
91,1938690,8.8726,4.7043,1.6223,-6.4400,-3.2900,12.1100,999.2311,9.0404,3.2718,1.9330,1590579761,N
91,1939306,8.9204,3.3117,1.8975,-0.6300,3.5700,12.4600,999.2328,9.0702,3.1927,1.9258,1590579761,N
91,1940058,8.9061,3.6658,2.2851,13.3000,5.0400,0.5600,999.2349,9.0017,3.3363,2.0024,1590579761,N
91,1937671,8.8774,3.8166,2.3043,2.8000,-2.7300,-0.4200,999.2364,8.9644,3.4181,2.0314,1590579761,N
91,1934939,8.9492,3.7113,1.9525,-1.8200,-3.4300,-4.4800,999.2390,8.9485,3.4782,1.9994,1590579762,N
91,1934161,8.8678,3.8118,2.0746,-2.6600,-0.6300,-3.7800,999.2407,8.9128,3.5558,2.0219,1590579762,N
91,1933980,8.9037,4.0152,2.0889,1.4700,-0.8400,-2.5200,999.2413,8.8744,3.6497,2.0237,1590579762,N
91,1934059,9.0138,3.9936,1.8951,-0.7000,-1.1200,6.2300,999.2419,8.8918,3.6364,1.9705,1590579762,N
91,1934751,8.9468,3.5581,2.0818,0.2100,4.3400,6.7900,999.2426,8.9016,3.5897,2.0114,1590579762,N
91,1935576,8.8893,3.7137,2.2875,3.9900,4.9000,-0.4200,999.2433,8.8565,3.6551,2.0910,1590579762,N
91,1932927,9.0138,3.4911,2.2301,-7.3500,3.2200,0.4200,999.2444,8.8623,3.6029,2.1563,1590579762,N
91,1930966,8.9085,3.7519,2.3498,2.4500,0.3500,-2.5900,999.2454,8.8331,3.6540,2.1899,1590579762,N
91,1930847,8.8247,3.7400,2.5005,-4.8300,2.8700,1.9600,999.2468,8.8136,3.6477,2.2771,1590579762,N
91,1930930,8.9492,3.7208,2.2493,-0.7000,0.6300,1.9600,999.2484,8.8205,3.6369,2.2678,1590579762,N
91,1931431,8.7601,3.6514,2.6010,-1.9600,1.1200,0.5600,999.2492,8.8020,3.6330,2.3445,1590579763,N
91,1932600,8.8678,3.5222,2.3139,0.4900,-2.8000,-0.4900,999.2505,8.8225,3.6012,2.3162,1590579763,N
91,1932968,8.8415,3.7472,2.3785,-1.3300,0.7700,-0.0700,999.2512,8.8085,3.6239,2.3341,1590579763,N
91,1930388,8.9372,3.6323,2.4024,0.5600,-1.2600,0.9100,999.2509,8.8183,3.6038,2.3282,1590579763,N
91,1929566,8.9180,3.6371,2.4359,-1.4000,0.6300,0.1400,999.2508,8.8142,3.5985,2.3516,1590579763,N
91,1930567,8.9563,3.9817,2.1727,1.0500,-0.4200,14.2100,999.2508,8.8577,3.5430,2.2715,1590579763,N
90,1931990,9.0114,3.1442,2.1894,0.4200,7.4900,15.6800,999.2507,8.9201,3.3762,2.2811,1590579763,N
91,1932697,9.1262,2.6632,2.2851,29.4700,18.3400,-2.5200,999.2502,8.8715,3.4434,2.3683,1590579763,N
91,1935577,9.0042,2.9719,2.5603,-31.9900,20.5100,-1.0500,999.2512,8.8361,3.3324,2.6436,1590579763,N
90,1938735,8.3342,3.3093,4.3813,-16.5200,16.1000,-8.1900,999.2531,8.6403,3.4106,3.1438,1590579763,N
91,1936686,8.7147,2.6082,3.6658,-54.0400,3.5000,8.1200,999.2537,8.6835,3.0252,3.4082,1590579764,N
90,1932836,8.7625,3.3906,4.0702,39.4800,-2.8000,-10.5700,999.2549,8.5997,3.2671,3.3972,1590579764,N
90,1930938,8.7434,2.6489,3.5127,-12.2500,0.7000,1.8200,999.2557,8.6388,3.0917,3.4615,1590579764,N
90,1930438,8.7147,2.9097,3.6012,2.9400,5.6700,-2.2400,999.2568,8.6120,3.0924,3.5270,1590579764,N
90,1931295,8.5496,2.9910,4.2736,3.8500,6.7200,2.5200,999.2579,8.5525,3.0735,3.6850,1590579764,N
90,1932074,8.5711,2.9312,3.9912,6.7900,-0.5600,5.2500,999.2584,8.5684,3.0199,3.6924,1590579764,N
90,1929588,8.7266,3.0293,3.8740,5.0400,0.5600,8.5400,999.2582,8.5988,2.9614,3.6691,1590579764,N
90,1928266,8.7888,2.6991,3.8907,-2.1700,-4.6900,10.2200,999.2579,8.6686,2.8021,3.6297,1590579764,N
90,1928880,8.7793,2.4431,3.8237,1.7500,-0.7700,3.5000,999.2570,8.6981,2.7011,3.6355,1590579764,N
90,1929460,8.7697,2.4766,3.9745,8.1200,-6.3000,-1.1900,999.2563,8.7153,2.6666,3.6198,1590579764,N
90,1930949,8.8247,2.8834,3.4002,15.7500,-6.6500,-3.6400,999.2554,8.7406,2.7620,3.4847,1590579765,N
90,1933141,8.8080,3.0054,3.3954,7.9800,-5.0400,0.4200,999.2542,8.7602,2.8108,3.3953,1590579765,N
90,1932880,8.8965,2.8522,3.2638,4.7600,-4.5500,-0.3500,999.2529,8.7889,2.8178,3.3145,1590579765,N
90,1931131,8.9109,2.9527,3.3021,1.6800,-3.1500,-1.2600,999.2516,8.7950,2.8419,3.2774,1590579765,N
90,1931108,8.9061,2.9934,3.1561,2.0300,-3.0800,-1.3300,999.2507,8.8057,2.8732,3.2211,1590579765,N
90,1931816,8.8798,3.0532,3.0963,2.4500,-2.9400,-0.8400,999.2498,8.8147,2.9089,3.1638,1590579765,N
90,1932823,8.9396,3.0987,2.9862,1.2600,-1.8200,-0.2100,999.2495,8.8259,2.9394,3.1038,1590579765,N
89,1934149,8.9157,3.0102,3.1107,-0.7000,0.1400,-0.0700,999.2491,8.8243,2.9462,3.1020,1590579765,N
90,1935715,8.9228,3.0843,3.1226,-0.4200,-0.0700,0.6300,999.2490,8.8221,2.9590,3.0961,1590579765,N
89,1933789,8.9133,3.0820,3.0796,0.1400,-0.2100,0.0700,999.2484,8.8209,2.9756,3.0834,1590579765,N
89,1932521,8.8846,3.0891,3.0939,0.1400,-0.5600,0.2100,999.2479,8.8196,2.9893,3.0741,1590579766,N
89,1932778,8.9180,2.9934,3.0652,-0.2100,-0.4200,0.2100,999.2472,8.8260,2.9813,3.0635,1590579766,N
89,1933262,8.9204,3.0580,3.0532,-0.2100,-0.0700,-0.1400,999.2464,8.8257,2.9904,3.0555,1590579766,N
89,1934162,8.9468,3.0341,3.1083,-0.3500,-0.0700,0.2100,999.2458,8.8260,2.9878,3.0571,1590579766,N
89,1935422,8.9444,3.0556,3.1394,0.3500,-0.5600,0.0700,999.2446,8.8246,2.9906,3.0583,1590579766,N
89,1936262,8.9180,3.0317,3.1442,0.3500,-0.7700,-0.1400,999.2440,8.8235,2.9910,3.0610,1590579766,N
89,1933737,8.9228,3.0556,3.0772,-0.1400,-0.4200,0.0700,999.2429,8.8247,2.9946,3.0540,1590579766,N
89,1932737,8.9300,3.0604,3.2016,0.3500,-0.4900,0.0700,999.2422,8.8191,2.9968,3.0681,1590579766,N
89,1933053,8.9539,3.0532,3.1011,0.7700,-0.9100,-0.0700,999.2424,8.8225,2.9988,3.0563,1590579766,N
89,1933555,8.9228,2.9910,3.0891,0.1400,0.1400,0.1400,999.2426,8.8249,2.9910,3.0570,1590579766,N
89,1934467,8.9228,3.0508,3.0437,-1.1200,0.4200,0.6300,999.2437,8.8269,2.9900,3.0524,1590579767,N
89,1935699,8.9037,2.9910,3.1490,-1.1900,0.3500,0.4200,999.2443,8.8246,2.9787,3.0701,1590579767,N
89,1935219,8.8654,3.0269,3.2016,1.8200,-2.1000,-0.2100,999.2438,8.8234,2.9828,3.0693,1590579767,N
89,1932905,8.9492,3.0772,3.0197,1.0500,-2.1700,-0.3500,999.2445,8.8328,2.9926,3.0327,1590579767,N
89,1932618,8.9157,3.0939,3.0700,-0.6300,0.9100,0.1400,999.2448,8.8254,3.0056,3.0414,1590579767,N
89,1933311,8.9228,3.0197,3.0987,-0.6300,-0.7000,0.5600,999.2448,8.8299,2.9933,3.0404,1590579767,N
89,1934008,8.9635,3.0676,3.0245,-0.6300,-0.2100,0.0700,999.2444,8.8328,2.9966,3.0287,1590579767,N
90,1935192,8.9396,3.0556,3.0580,-0.1400,-0.2100,0.3500,999.2447,8.8341,2.9970,3.0245,1590579767,N
89,1936757,8.8798,3.0724,3.0820,0.2100,0.4900,0.2800,999.2451,8.8277,3.0070,3.0333,1590579767,N
89,1936095,8.8989,3.1226,3.1083,0.7000,-0.2800,-0.1400,999.2452,8.8204,3.0245,3.0369,1590579767,N
90,1934123,8.9539,3.0532,2.9838,-0.2100,-0.6300,-0.0700,999.2464,8.8289,3.0213,3.0153,1590579768,N
89,1934136,8.9252,3.0748,3.0939,-1.1900,0.8400,0.7700,999.2465,8.8250,3.0175,3.0305,1590579768,N
90,1934486,8.8989,3.0485,3.1059,-0.2100,-0.7000,0.2800,999.2462,8.8257,3.0125,3.0335,1590579768,N
89,1935106,8.8534,3.0796,3.0413,-0.0700,-0.2800,-0.2100,999.2457,8.8229,3.0234,3.0308,1590579768,N
90,1936307,8.8798,3.0508,3.1155,0.1400,-0.3500,0.4900,999.2459,8.8221,3.0190,3.0375,1590579768,N
89,1937884,8.8630,2.9838,3.1226,0.3500,-0.5600,-0.0700,999.2456,8.8227,3.0086,3.0460,1590579768,N
89,1937022,8.9420,3.0628,3.0317,0.8400,-0.5600,-0.2100,999.2457,8.8264,3.0142,3.0298,1590579768,N
90,1935003,8.9539,3.0485,3.0532,-0.3500,0.0700,-0.2100,999.2460,8.8270,3.0139,3.0285,1590579768,N
89,1935115,8.9611,3.0341,3.1011,-0.3500,-0.2800,0.2100,999.2474,8.8288,3.0052,3.0318,1590579768,N
90,1935644,8.9420,3.0245,3.0700,-0.1400,-0.1400,0.2100,999.2487,8.8312,2.9993,3.0307,1590579768,N
90,1936335,8.8678,3.0317,3.0915,0.2800,-0.1400,0.2100,999.2495,8.8287,3.0007,3.0364,1590579769,N
90,1937694,8.9085,2.9886,3.0939,-0.4200,-0.5600,0.0700,999.2500,8.8316,2.9895,3.0390,1590579769,N
90,1939165,8.9109,3.0532,3.1394,-0.1400,-0.2100,0.0700,999.2504,8.8266,2.9932,3.0499,1590579769,N
89,1938191,8.9539,3.0628,3.0891,1.4700,-0.7700,0.0700,999.2518,8.8287,2.9991,3.0381,1590579769,N
90,1936183,8.9276,3.1011,3.0843,1.4700,-1.2600,0.0700,999.2523,8.8294,3.0105,3.0247,1590579769,N
89,1936114,8.9659,3.0269,3.0365,-0.9800,-0.0700,0.4900,999.2518,8.8351,2.9990,3.0196,1590579769,N
89,1936599,8.9420,3.0293,3.1418,-0.7700,-0.0700,0.1400,999.2506,8.8315,2.9929,3.0361,1590579769,N
90,1937218,8.9492,3.0556,3.0820,-0.2800,-0.7700,-0.0700,999.2501,8.8326,2.9941,3.0316,1590579769,N
89,1938187,8.9180,3.0652,3.0891,-0.4900,-0.2100,0.2800,999.2500,8.8306,2.9969,3.0347,1590579769,N
89,1939726,8.9994,3.0245,3.0987,-0.0700,-0.9100,-0.0700,999.2507,8.8351,2.9889,3.0295,1590579769,N
89,1938677,8.9444,3.0748,3.0724,1.1200,-0.5600,-0.0700,999.2508,8.8340,2.9994,3.0223,1590579770,N
89,1936620,8.9396,3.0891,3.0461,-1.4000,0.6300,0.4200,999.2507,8.8310,3.0041,3.0266,1590579770,N
89,1936489,8.9204,2.9910,3.1657,-0.7700,-0.1400,0.2800,999.2504,8.8289,2.9895,3.0468,1590579770,N
89,1936929,8.9468,3.0389,3.0173,1.0500,-1.7500,0.0700,999.2487,8.8392,2.9892,3.0171,1590579770,N
89,1937259,8.9157,3.0006,3.0341,-0.2100,-0.2100,0.2100,999.2477,8.8421,2.9839,3.0139,1590579770,N
89,1938334,8.9180,3.0987,3.0389,0.0700,-0.1400,0.3500,999.2469,8.8392,2.9968,3.0097,1590579770,N
89,1939753,8.8893,3.0676,3.1178,-0.7000,0.6300,0.0700,999.2463,8.8291,3.0044,3.0317,1590579770,N
89,1939268,8.8917,2.9958,3.1155,1.0500,-1.1900,-0.1400,999.2462,8.8313,2.9980,3.0315,1590579770,N
89,1936950,8.9946,3.0604,3.0724,0.4900,-0.4200,-0.1400,999.2461,8.8328,3.0006,3.0245,1590579770,N
89,1936726,8.9611,3.0987,3.0485,-0.1400,-0.1400,0.2800,999.2473,8.8326,3.0076,3.0183,1590579770,N
89,1937087,8.9157,3.0317,3.0030,0.2100,-0.3500,-0.0700,999.2477,8.8363,3.0077,3.0074,1590579771,N
89,1937396,8.9133,3.0628,3.0724,0.2100,-0.2800,0.1400,999.2475,8.8342,3.0107,3.0105,1590579771,N
89,1938070,8.8750,3.3811,3.0389,-8.5400,3.2200,-3.2200,999.2476,8.7891,3.0846,3.0673,1590579771,N
89,1939165,8.9850,2.7398,3.0197,6.5800,-8.8200,-10.5000,999.2480,8.8118,3.0840,3.0020,1590579771,N
89,1941488,8.6788,3.2423,3.1801,12.6000,-10.5000,-15.2600,999.2490,8.7688,3.2361,2.9674,1590579771,N
89,1944394,8.6357,4.0439,2.7685,-0.4900,-9.9400,-19.3200,999.2491,8.6911,3.4934,2.9037,1590579771,N
89,1948632,8.6692,4.0343,2.5651,5.8800,-20.7900,-22.1200,999.2485,8.6705,3.6952,2.7088,1590579771,N
89,1953290,8.4826,4.8431,1.7683,11.5500,-10.7800,-22.5400,999.2473,8.5920,4.0433,2.4492,1590579771,N
89,1958023,8.4443,5.0010,2.0052,-4.7600,-10.7800,-11.4100,999.2460,8.5515,4.2075,2.3106,1590579771,N
89,1961542,8.4132,4.9531,2.0411,-17.7800,-0.4900,-0.4200,999.2452,8.5266,4.2612,2.3041,1590579771,N
89,1964909,8.5663,4.7976,1.8090,1.7500,0.7700,-0.2100,999.2451,8.5128,4.3448,2.1966,1590579772,N
88,1962770,8.3581,4.5751,2.5101,-5.3900,2.8700,-1.1200,999.2454,8.4616,4.3922,2.2977,1590579772,N
89,1962259,8.3988,4.5392,2.2684,-6.3700,1.8200,-4.2700,999.2462,8.4293,4.4365,2.3310,1590579772,N
88,1964785,8.3055,5.1039,2.4598,4.3400,1.8900,-3.3600,999.2473,8.3384,4.5943,2.3525,1590579772,N
88,1967680,8.2983,4.7186,2.5436,0.9100,-0.0700,3.0100,999.2474,8.3311,4.5935,2.3798,1590579772,N
88,1971497,8.3127,4.7474,2.4694,-0.9800,-0.0700,-2.2400,999.2475,8.3057,4.6290,2.3997,1590579772,N
88,1975058,8.3342,4.6181,2.5364,-13.7900,-1.6100,-0.9100,999.2474,8.3242,4.5643,2.4588,1590579772,N
88,1977358,8.2959,4.8263,2.4981,-2.3100,0.0700,-0.2100,999.2480,8.3027,4.5973,2.4698,1590579772,N
89,1975834,8.2074,4.7665,2.7230,4.2000,0.3500,-0.7700,999.2472,8.2615,4.6511,2.5071,1590579772,N
88,1975878,8.2600,4.9675,2.2828,1.7500,2.5200,5.5300,999.2458,8.2578,4.6814,2.4624,1590579772,N
88,1977196,8.3318,4.4530,2.7135,-2.9400,2.5200,2.5200,999.2443,8.2733,4.6147,2.5353,1590579773,N
89,1977407,8.3103,4.5559,2.7087,-5.8800,-0.5600,-0.6300,999.2435,8.2800,4.5758,2.5833,1590579773,N
88,1978253,8.3079,4.5966,2.6177,-4.4800,0.6300,1.5400,999.2438,8.2882,4.5488,2.6046,1590579773,N
88,1979757,8.3414,4.2209,2.7182,-1.4000,-0.4900,-0.0700,999.2444,8.3157,4.4817,2.6333,1590579773,N
88,1979201,8.4227,4.8670,2.4957,11.2000,2.3100,-2.0300,999.2448,8.2638,4.6084,2.5773,1590579773,N
89,1978024,8.2193,4.4363,2.9910,-4.9700,3.3600,2.1700,999.2458,8.2567,4.5529,2.6960,1590579773,N
88,1978829,8.3055,4.6277,2.7781,-3.2900,1.1900,0.8400,999.2473,8.2522,4.5441,2.7246,1590579773,N
88,1979536,8.3079,4.3884,3.1872,6.8600,-7.0000,-2.2400,999.2487,8.2611,4.5176,2.7416,1590579773,N
88,1979590,8.3175,4.5440,2.4885,3.0800,-10.5700,-3.9200,999.2501,8.3029,4.5172,2.6130,1590579773,N
88,1980105,8.3557,4.8287,2.3139,9.5200,-7.0700,-1.5400,999.2513,8.3107,4.5828,2.4698,1590579773,N
88,1980519,8.3844,4.6229,2.2516,-2.0300,-4.2700,-2.3100,999.2521,8.3345,4.5746,2.4041,1590579774,N
88,1977606,8.3749,5.1661,2.1751,-10.9900,0.5600,1.7500,999.2534,8.3237,4.6042,2.3849,1590579774,N
88,1974622,8.3677,4.6181,2.6201,-7.7000,2.2400,6.5800,999.2537,8.3444,4.5279,2.4575,1590579774,N
88,1973706,8.4323,3.8788,2.4933,-8.8200,-1.4000,-5.8100,999.2543,8.3906,4.4155,2.5044,1590579774,N
88,1972669,8.2720,4.8120,2.6871,0.7700,-3.9200,-9.2400,999.2551,8.3217,4.5359,2.5189,1590579774,N
88,1972364,8.3892,5.0393,2.1775,-3.0800,-0.4200,-0.9100,999.2557,8.3061,4.6018,2.4499,1590579774,N
88,1973065,8.2959,4.7378,2.7230,-4.1300,0.7700,1.7500,999.2559,8.2923,4.5920,2.5142,1590579774,N
88,1974318,8.3055,4.6995,2.6321,-5.3900,-0.4200,-0.7700,999.2559,8.2848,4.5865,2.5487,1590579774,N
88,1972220,8.3103,4.6875,2.6489,0.8400,0.7700,-1.3300,999.2552,8.2630,4.6149,2.5683,1590579774,N
88,1970305,8.2959,4.6804,2.6249,3.2900,-1.0500,2.0300,999.2549,8.2674,4.6144,2.5548,1590579774,N
88,1971002,8.3055,4.8574,2.6632,6.7200,-0.2800,1.3300,999.2560,8.2441,4.6632,2.5416,1590579775,N
88,1971796,8.3103,4.6875,2.5244,6.3000,-1.1900,1.1200,999.2571,8.2486,4.6752,2.5048,1590579775,N
88,1972749,8.3438,4.7139,2.4766,0.8400,0.3500,3.3600,999.2587,8.2648,4.6545,2.4898,1590579775,N
88,1974917,8.3557,4.6469,2.4598,1.8200,0.0700,-0.4200,999.2598,8.2668,4.6584,2.4757,1590579775,N
88,1977305,8.3510,4.7163,2.4933,6.5800,-0.7000,-0.4200,999.2611,8.2576,4.6891,2.4486,1590579775,N
88,1975805,8.3797,4.7689,2.3976,3.2200,1.3300,1.9600,999.2612,8.2575,4.6997,2.4285,1590579775,N
88,1975299,8.4084,4.8072,2.4287,2.5200,3.5700,4.0600,999.2606,8.2543,4.7038,2.4312,1590579775,N
88,1976470,8.3318,4.8503,2.5819,2.5200,4.1300,3.9200,999.2599,8.2345,4.7197,2.4674,1590579775,N
88,1977878,8.3940,5.2331,3.1537,-55.6500,-5.1800,14.5600,999.2599,8.3406,4.3992,2.6931,1590579775,N
88,1978653,8.5974,3.7639,2.4766,-14.7700,-2.4500,5.3200,999.2598,8.4605,4.1745,2.6765,1590579775,N
88,1979143,8.4730,4.1898,3.1825,-20.7900,-0.1400,0.5600,999.2599,8.4530,4.0875,2.8300,1590579776,N
88,1979002,8.5831,3.6730,3.0580,-38.5000,-5.1100,3.8500,999.2596,8.5326,3.8281,2.9512,1590579776,N
88,1973419,8.6429,3.7113,3.0867,-13.5100,-5.9500,1.5400,999.2593,8.5737,3.7228,2.9669,1590579776,N
88,1968197,8.6309,3.8046,3.0891,0.0700,-2.7300,-1.3300,999.2593,8.5709,3.7298,2.9662,1590579776,N
88,1965914,8.6261,3.6012,3.1059,-3.2200,-2.0300,-2.3100,999.2595,8.5741,3.7016,2.9923,1590579776,N
87,1963753,8.5400,3.9099,3.2399,-5.7400,1.4000,-2.7300,999.2582,8.5298,3.7405,3.0696,1590579776,N
88,1963013,8.5352,3.8213,3.1753,-5.1800,0.6300,-4.4100,999.2568,8.4990,3.7698,3.1186,1590579776,N
88,1963754,8.5543,3.8859,3.2088,-0.4200,0.7000,0.1400,999.2557,8.4872,3.7829,3.1349,1590579776,N
87,1964607,8.6189,3.7232,3.1872,-0.7700,-0.9800,0.4200,999.2546,8.5010,3.7539,3.1325,1590579776,N
88,1961019,8.5543,3.9529,3.2160,0.2800,-0.3500,-0.8400,999.2545,8.4840,3.7873,3.1382,1590579776,N
87,1958709,8.4993,3.8716,3.1322,4.2700,0.4900,0.4200,999.2543,8.4779,3.8132,3.1232,1590579777,N
88,1958138,8.5161,3.8142,3.2112,7.2100,-0.4900,-0.6300,999.2540,8.4717,3.8363,3.1120,1590579777,N
87,1958060,8.5854,4.0152,3.1370,1.2600,-0.2800,0.1400,999.2542,8.4654,3.8599,3.0996,1590579777,N
88,1958099,8.5424,4.0008,3.1944,2.8000,-0.4200,0.7700,999.2548,8.4586,3.8783,3.0953,1590579777,N
87,1958234,8.6022,3.9793,3.1633,3.5700,-0.2800,-0.0700,999.2554,8.4547,3.8957,3.0841,1590579777,N
87,1957464,8.5687,3.8764,3.0700,0.3500,-1.0500,0.8400,999.2560,8.4705,3.8761,3.0653,1590579777,N
87,1952634,8.5280,3.9338,3.1178,2.7300,0.9100,-0.2800,999.2562,8.4602,3.8957,3.0690,1590579777,N
87,1950128,8.5950,3.8405,3.1394,1.1900,-0.7700,0.2100,999.2563,8.4707,3.8752,3.0659,1590579777,N
87,1949877,8.5711,4.0439,3.0413,-0.6300,-0.2800,-0.1400,999.2564,8.4666,3.8948,3.0524,1590579777,N
87,1949421,8.5184,3.9266,3.1442,-0.1400,-0.2800,0.4200,999.2574,8.4653,3.8897,3.0627,1590579777,N
87,1949928,8.6046,3.9386,3.0341,6.8600,-0.2800,-1.2600,999.2581,8.4627,3.9219,3.0284,1590579778,N
87,1952452,8.5567,4.1348,3.2518,-0.7700,0.2800,0.3500,999.2582,8.4420,3.9410,3.0615,1590579778,N
87,1955568,8.6381,4.5176,3.1035,-16.7300,-1.0500,5.0400,999.2581,8.4465,3.9168,3.0799,1590579778,N
87,1953712,8.4610,2.9575,3.2590,-1.3300,-2.1700,-3.4300,999.2581,8.4998,3.7519,3.1379,1590579778,N
87,1953149,8.5998,4.3645,2.8140,-4.6900,5.4600,-5.6000,999.2584,8.4377,3.8971,3.1287,1590579778,N
87,1953582,8.4873,4.0534,3.4839,3.4300,-2.7300,-0.9100,999.2581,8.4168,3.9207,3.1554,1590579778,N
87,1951483,8.5328,3.8668,3.1394,-5.9500,-0.9100,2.2400,999.2584,8.4433,3.8637,3.1547,1590579778,N
87,1950207,8.4945,3.3212,3.0939,11.9000,-0.7700,-2.1700,999.2584,8.4762,3.8210,3.1185,1590579778,N
87,1952043,8.4873,3.8429,2.6441,43.4000,1.0500,-16.4500,999.2583,8.3994,4.1226,2.9368,1590579778,N
87,1957360,8.3749,5.1326,2.6345,57.7500,2.5200,-16.9400,999.2579,8.1845,4.6675,2.7200,1590579778,N
87,1958538,8.1739,5.2738,2.3450,7.8400,-0.7000,-3.9900,999.2579,8.1240,4.8324,2.6112,1590579779,N
87,1960472,8.1476,5.4700,1.5410,44.0300,-0.4900,3.9200,999.2575,8.0348,5.1580,2.2376,1590579779,N
87,1961703,8.2026,4.5392,2.2732,-15.1900,3.3600,8.8200,999.2570,8.1633,4.9137,2.3208,1590579779,N
87,1963199,8.2768,4.4985,1.9286,-0.9100,4.9000,-0.6300,999.2577,8.1918,4.8815,2.2879,1590579779,N
87,1966001,8.1356,5.1494,2.4239,-19.6700,6.5100,-1.8900,999.2581,8.1589,4.8733,2.4193,1590579779,N
87,1969022,8.1954,4.7976,2.6512,-9.1000,-3.2900,0.5600,999.2590,8.1942,4.7880,2.4699,1590579779,N
87,1971651,8.2265,4.7976,2.1272,-3.8500,0.4200,-0.2100,999.2603,8.2126,4.7823,2.4191,1590579779,N
86,1969730,8.1811,4.8933,2.6728,0.9100,1.4000,1.1200,999.2617,8.1878,4.7990,2.4697,1590579779,N
87,1968352,8.2624,4.8072,2.6417,-2.9400,-1.7500,-1.3300,999.2628,8.1919,4.7776,2.4976,1590579779,N
86,1965628,8.2385,4.7139,2.5819,-6.9300,-2.0300,0.8400,999.2639,8.2210,4.7149,2.5209,1590579779,N
86,1960775,8.2959,4.7474,2.5555,-0.2800,-1.6100,1.4000,999.2651,8.2363,4.6933,2.5113,1590579780,N
86,1957046,8.2433,4.7761,2.5268,0.2100,-0.4900,1.8200,999.2654,8.2401,4.6898,2.5055,1590579780,N
86,1955637,8.2576,4.7617,2.6106,-2.6600,1.0500,1.1200,999.2659,8.2347,4.6822,2.5370,1590579780,N
86,1954451,8.2816,4.6923,2.6656,0.2800,0.6300,5.2500,999.2653,8.2520,4.6419,2.5549,1590579780,N
86,1951840,8.3318,4.5990,2.6297,7.5600,1.4000,-0.3500,999.2651,8.2374,4.6695,2.5518,1590579780,N
86,1951965,8.3844,5.0034,2.4168,-2.6600,2.1000,2.0300,999.2649,8.2287,4.6947,2.5335,1590579780,N
86,1952115,8.3677,4.4818,2.6608,-4.8300,-1.1900,1.9600,999.2654,8.2706,4.6050,2.5615,1590579780,N
86,1950865,8.3127,4.5966,2.6608,-6.8600,-1.4000,-1.6100,999.2662,8.2779,4.5742,2.5929,1590579780,N
86,1949150,8.3342,4.7402,2.4909,-2.9400,-0.0700,1.6800,999.2678,8.2848,4.5723,2.5742,1590579780,N
86,1948270,8.3964,4.4172,2.7302,-1.3300,1.9600,3.5700,999.2694,8.3051,4.5121,2.6148,1590579780,N
86,1948372,8.3031,4.2664,2.7589,3.2900,-2.3800,-2.2400,999.2709,8.3150,4.4882,2.6242,1590579781,N
86,1950802,8.3342,4.6229,2.4311,10.0800,3.5000,-3.7800,999.2732,8.2669,4.6005,2.5815,1590579781,N
85,1956404,8.2672,4.6421,2.7829,-4.9700,-0.7700,-0.0700,999.2755,8.2647,4.5778,2.6283,1590579781,N
86,1960092,8.2433,4.6229,2.5890,-2.1000,-0.9100,-4.9700,999.2773,8.2459,4.6116,2.6284,1590579781,N
86,1961937,8.2576,5.1996,2.8618,-12.8800,-3.2900,0.0700,999.2783,8.2237,4.6235,2.6765,1590579781,N
85,1962675,8.0806,4.3143,2.7757,-28.5600,-5.6000,-1.2600,999.2789,8.2855,4.4565,2.7678,1590579781,N
85,1962658,8.2361,4.3669,2.9480,-14.5600,-3.2200,-3.5000,999.2787,8.2917,4.4007,2.8376,1590579781,N
85,1960834,8.2146,4.4435,2.7685,19.7400,-0.4200,-6.2300,999.2784,8.2434,4.5334,2.7686,1590579781,N
85,1959095,8.1858,5.6830,2.7206,41.6500,3.5700,-2.8000,999.2781,8.0693,4.9168,2.6234,1590579781,N
85,1959931,8.1356,4.5942,2.7063,-13.2300,4.2700,-0.7000,999.2784,8.0927,4.8249,2.7202,1590579781,N
85,1961564,8.1835,5.0010,2.4885,9.8700,1.2600,-0.9800,999.2781,8.0681,4.9075,2.6442,1590579782,N
85,1964113,8.2528,5.1757,2.6249,0.2800,2.8700,4.4800,999.2781,8.0659,4.9141,2.6387,1590579782,N
85,1966991,8.1284,4.2162,2.9838,-42.4900,0.9100,7.4200,999.2771,8.1990,4.5563,2.8613,1590579782,N
85,1969678,8.3318,4.9914,2.9958,-42.4900,0.2800,-0.2800,999.2756,8.2038,4.4466,3.0158,1590579782,N
85,1969168,8.1882,4.9795,3.3260,-19.0400,-0.4900,7.2100,999.2751,8.1974,4.3947,3.1081,1590579782,N
85,1968274,8.2146,4.0893,3.0652,-3.7800,0.2800,5.6700,999.2755,8.2507,4.2906,3.1123,1590579782,N
85,1969925,8.3964,4.2760,3.2614,-3.2200,1.5400,4.2000,999.2745,8.2662,4.2365,3.1452,1590579782,N
85,1971703,8.3605,4.2257,3.1585,4.8300,-0.7000,0.2800,999.2744,8.2732,4.2407,3.1210,1590579782,N
85,1973136,8.2648,4.4554,3.2255,7.4200,-1.7500,0.2800,999.2743,8.2558,4.2921,3.0966,1590579782,N
84,1973924,8.3510,4.8790,3.0987,31.4300,1.5400,0.8400,999.2747,8.1874,4.4998,2.9814,1590579782,N
85,1974726,8.3390,4.1085,3.0245,-3.2200,1.8900,5.6000,999.2755,8.2448,4.3755,3.0080,1590579783,N
84,1972206,8.3390,3.9697,3.1083,2.2400,-0.0700,-0.5600,999.2761,8.2724,4.3104,3.0264,1590579783,N
84,1969919,8.3892,4.2999,2.8977,-0.9800,-2.6600,-2.9400,999.2766,8.2861,4.3115,2.9871,1590579783,N
84,1969608,8.2720,4.5248,2.7494,8.1900,-3.0800,-3.4300,999.2776,8.2725,4.3985,2.8963,1590579783,N
84,1969920,8.4036,4.8168,2.4550,27.7200,-5.3200,-8.7500,999.2792,8.2217,4.6225,2.6845,1590579783,N
84,1971155,8.2863,4.8957,2.5914,1.4000,-1.3300,-2.9400,999.2794,8.1991,4.6833,2.6480,1590579783,N
84,1972585,8.2744,4.8479,2.2732,1.1200,1.2600,-2.3100,999.2797,8.1882,4.7409,2.5785,1590579783,N
84,1973300,8.2074,5.5250,2.5196,46.9700,2.1700,-0.2100,999.2791,8.0269,5.0956,2.4029,1590579783,N
84,1971207,8.2337,4.6062,2.4191,-2.3800,0.3500,1.4700,999.2781,8.0939,4.9797,2.4209,1590579783,N
84,1972049,8.2241,5.1494,2.3210,5.9500,-1.4000,-1.5400,999.2770,8.0788,5.0310,2.3650,1590579783,N
84,1974114,8.0471,5.0465,2.3737,-6.3700,3.3600,1.1900,999.2766,8.0769,5.0125,2.4102,1590579784,N
84,1975903,8.2457,4.9938,2.1703,4.2700,-2.1000,-0.9100,999.2759,8.0954,5.0199,2.3316,1590579784,N
84,1977792,8.2313,4.7689,2.2732,-12.6000,1.1900,-1.0500,999.2760,8.1415,4.9249,2.3733,1590579784,N
84,1978369,8.1667,4.9842,2.4120,-21.0000,-0.9800,0.3500,999.2762,8.1804,4.8260,2.4416,1590579784,N
84,1974528,8.2528,4.9508,2.3378,-2.8000,-1.9600,1.2600,999.2772,8.1998,4.8086,2.4106,1590579784,N
84,1963899,8.2481,5.0034,2.5364,-4.1300,0.9800,2.4500,999.2787,8.1951,4.7992,2.4449,1590579784,N
84,1954935,8.1954,4.8479,2.4670,-1.3300,-1.3300,-0.9800,999.2801,8.1945,4.8005,2.4444,1590579784,N
84,1949323,8.2122,4.9436,2.5364,-1.8200,0.3500,0.2100,999.2812,8.1823,4.8105,2.4656,1590579784,N
84,1944513,8.1763,4.8024,2.5388,2.0300,-0.9100,1.0500,999.2819,8.1858,4.8047,2.4655,1590579784,N
84,1941694,8.3198,4.9819,2.4790,7.0000,-3.5700,-2.5900,999.2825,8.1731,4.8523,2.4137,1590579784,N
84,1941663,8.3318,5.2044,2.1775,-3.0100,1.4000,1.6100,999.2827,8.1703,4.8770,2.3732,1590579785,N
84,1942972,8.1811,4.8239,2.5866,-0.7000,-0.2800,0.0700,999.2829,8.1695,4.8580,2.4143,1590579785,N
85,1939038,8.2600,4.9508,2.2947,6.0200,-1.9600,0.4900,999.2834,8.1740,4.8810,2.3521,1590579785,N
84,1937993,8.2768,5.3599,2.4598,21.7700,-0.1400,-4.2700,999.2838,8.0723,5.0775,2.2863,1590579785,N
84,1944336,8.2170,4.9412,2.5053,-3.4300,-1.7500,0.7700,999.2836,8.1058,5.0064,2.3245,1590579785,N
85,1949561,8.3031,4.6612,2.6273,-49.3500,1.0500,-0.4900,999.2834,8.2078,4.7191,2.5558,1590579785,N
85,1955235,8.1739,4.8168,2.5460,-16.1700,5.5300,-2.3800,999.2830,8.1814,4.7135,2.6491,1590579785,N
84,1959809,8.1236,4.7115,3.2949,-6.2300,2.2400,1.1200,999.2824,8.1483,4.6812,2.8038,1590579785,N
84,1959723,8.1763,4.7880,3.0221,10.9900,-2.3800,-0.7700,999.2824,8.1259,4.7305,2.7862,1590579785,N
85,1953944,8.2361,4.8455,2.7924,21.7000,-1.6100,2.3800,999.2833,8.1131,4.8072,2.6906,1590579785,N
84,1948716,8.2552,4.5799,2.9384,7.6300,-4.9000,2.9400,999.2847,8.1567,4.7429,2.6729,1590579786,N
84,1947766,8.2672,4.9579,2.6369,7.2100,-3.0100,-2.1700,999.2857,8.1417,4.8012,2.6139,1590579786,N
84,1946689,8.2002,4.9962,2.6632,0.8400,-0.7000,-0.6300,999.2859,8.1266,4.8295,2.6086,1590579786,N
85,1945674,8.2289,4.8670,2.7159,-18.4800,-0.9800,8.7500,999.2860,8.1981,4.6742,2.6670,1590579786,N
84,1954337,8.0614,4.1946,2.9145,-2.0300,4.9000,-0.4900,999.2858,8.1943,4.6179,2.7747,1590579786,N
84,1961230,8.1523,4.3669,2.8905,-3.5000,0.5600,-0.4900,999.2854,8.2053,4.5697,2.8215,1590579786,N
85,1962415,8.2481,4.6516,2.8666,1.1900,-1.0500,-0.9100,999.2844,8.1988,4.5851,2.8156,1590579786,N
84,1961563,8.3318,4.6971,2.7494,-2.7300,-0.4200,-0.4900,999.2835,8.2041,4.5844,2.8012,1590579786,N
85,1961713,8.2505,4.5081,2.8594,-2.0300,0.9100,-0.4900,999.2824,8.2057,4.5665,2.8256,1590579786,N
84,1962880,8.1978,4.6828,2.8618,-0.0700,-0.3500,-1.1200,999.2797,8.1910,4.5907,2.8290,1590579786,N
85,1963355,8.2385,4.6636,2.8379,3.0100,-0.4200,0.3500,999.2772,8.1879,4.6060,2.8129,1590579787,N
84,1964178,8.2241,4.6588,2.9432,5.2500,-2.1000,2.6600,999.2762,8.1960,4.6011,2.7975,1590579787,N
84,1964558,8.3007,4.9101,2.7757,1.8200,0.2800,2.0300,999.2759,8.1855,4.6341,2.7737,1590579787,N
85,1960873,8.3653,4.5535,2.6393,-10.9900,3.9900,2.8000,999.2750,8.2159,4.5623,2.8028,1590579787,N
84,1957795,8.3055,4.6301,3.1298,2.2400,-1.4700,-0.7700,999.2748,8.2012,4.5664,2.8387,1590579787,N
85,1957000,8.3151,4.8000,2.7015,10.4300,-4.4800,4.0600,999.2752,8.2242,4.5908,2.7309,1590579787,N
84,1959979,8.3222,4.4004,2.9288,-1.6100,1.2600,-4.6900,999.2755,8.2102,4.5812,2.7886,1590579787,N
84,1964167,8.3557,4.9244,2.4096,0.6300,-2.2400,8.3300,999.2762,8.2588,4.5619,2.6744,1590579787,N
84,1967784,8.3246,3.9673,2.7446,-9.3800,-0.4200,9.8700,999.2769,8.3642,4.3418,2.7128,1590579787,N
84,1970188,8.4634,4.1037,2.7852,-9.1000,1.6100,-4.1300,999.2784,8.3674,4.2962,2.7747,1590579787,N
84,1968894,8.3940,4.1300,2.5484,18.9700,3.7800,-14.4900,999.2796,8.2897,4.4749,2.7252,1590579788,N
84,1970154,8.2265,4.6756,2.8403,1.1200,-1.8200,-7.6300,999.2804,8.2374,4.5620,2.7394,1590579788,N
84,1972689,8.1930,4.7306,2.3498,6.5100,-1.8900,-9.3100,999.2814,8.1973,4.6896,2.6425,1590579788,N
84,1974698,8.1165,5.1087,2.5819,-9.3100,0.6300,-4.2000,999.2825,8.1524,4.7538,2.6664,1590579788,N
84,1977124,8.0614,5.1374,2.7589,-4.6200,0.1400,-1.1900,999.2823,8.1122,4.8053,2.6966,1590579788,N
84,1977877,8.1691,5.0465,2.4646,5.5300,0.7700,0.2100,999.2826,8.0966,4.8678,2.6306,1590579788,N
84,1978931,8.1595,4.8335,2.6273,-2.5900,-2.6600,0.2800,999.2831,8.1221,4.8317,2.6187,1590579788,N
84,1976013,8.1523,5.4915,2.4837,-3.5700,2.5200,-0.6300,999.2830,8.0687,4.9261,2.6075,1590579788,N
84,1973208,8.0686,4.6540,3.0939,-3.1500,-4.3400,1.5400,999.2821,8.1031,4.8276,2.6840,1590579788,N
84,1973556,8.1236,4.8909,2.4670,8.4700,0.1400,-8.4700,999.2805,8.0547,4.9411,2.6227,1590579788,N
84,1974261,7.9920,5.6040,2.7206,21.0700,11.1300,-8.6100,999.2785,7.8533,5.2510,2.6313,1590579789,N
84,1976126,7.8174,5.4963,2.8020,7.7000,-0.4900,-0.6300,999.2769,7.8058,5.3241,2.6255,1590579789,N
84,1979283,7.8365,5.1517,2.4191,4.9700,-2.1000,-1.8200,999.2757,7.8224,5.3315,2.5602,1590579789,N
84,1981357,7.8700,5.6040,2.3737,0.7000,1.9600,-2.3100,999.2750,7.7860,5.3999,2.5278,1590579789,N
84,1978603,7.8245,5.3456,2.5316,9.0300,-1.2600,-0.6300,999.2748,7.7758,5.4335,2.4869,1590579789,N
84,1978712,7.9537,5.5298,2.3258,8.3300,-1.2600,-1.3300,999.2748,7.7653,5.4834,2.4089,1590579789,N
84,1980487,7.9035,5.6614,2.1679,-1.5400,2.3100,-1.3300,999.2750,7.7527,5.5159,2.3750,1590579789,N
84,1980102,7.9035,5.2834,2.5531,-4.7600,-2.9400,0.1400,999.2747,7.8074,5.4233,2.4089,1590579789,N
84,1978949,7.8413,5.5848,2.2732,5.0400,-2.4500,-1.2600,999.2747,7.7954,5.4686,2.3445,1590579789,N
84,1978986,7.8150,5.7188,2.2110,-7.5600,-0.9100,2.4500,999.2753,7.8175,5.4417,2.3334,1590579789,N
84,1977357,7.9442,5.3097,2.4335,14.0000,-6.5100,5.2500,999.2759,7.8629,5.4097,2.2540,1590579790,N
84,1975315,7.9250,5.3934,2.0506,0.9100,0.4900,-1.8900,999.2767,7.8608,5.4290,2.2145,1590579790,N
84,1975042,7.7839,5.6183,2.3713,-1.1200,2.6600,1.1200,999.2775,7.8264,5.4590,2.2620,1590579790,N
84,1975989,7.9226,5.2403,2.3330,0.7000,-1.3300,0.2800,999.2775,7.8577,5.4119,2.2667,1590579790,N
84,1977645,7.8126,5.6136,2.2014,0.1400,0.3500,-0.2800,999.2770,7.8355,5.4498,2.2529,1590579790,N
84,1977673,7.8963,5.4269,2.3234,-1.4700,-0.7700,1.2600,999.2769,7.8541,5.4181,2.2643,1590579790,N
84,1975377,7.9179,5.4796,2.2732,-0.9800,-0.9100,0.2100,999.2762,7.8617,5.4090,2.2598,1590579790,N
84,1968828,7.9131,5.4078,2.1966,0.3500,-0.0700,-0.0700,999.2773,7.8669,5.4079,2.2443,1590579790,N
84,1967714,7.9202,5.3982,2.0746,7.1400,-0.2800,0.3500,999.2782,7.8617,5.4410,2.1819,1590579790,N
84,1970757,7.8891,5.7739,2.0148,28.4200,1.1200,3.7800,999.2786,7.7630,5.6345,2.0390,1590579790,N
84,1974058,7.9466,5.2522,1.8592,-0.6300,-0.8400,1.1900,999.2787,7.8301,5.5535,2.0049,1590579791,N
84,1976358,7.8867,5.6590,1.8951,-1.1900,1.7500,-1.5400,999.2780,7.8129,5.5808,1.9958,1590579791,N
85,1978547,7.8293,5.5394,1.9502,1.4000,0.9100,2.1700,999.2782,7.8204,5.5736,1.9866,1590579791,N
85,1978626,8.0303,5.4054,1.8832,0.0700,0.3500,0.4900,999.2786,7.8536,5.5341,1.9659,1590579791,N
85,1975842,7.8485,5.4867,2.0459,1.1900,-0.4200,0.0700,999.2787,7.8543,5.5297,1.9754,1590579791,N
85,1975431,7.9801,5.4389,1.8401,6.0900,-0.0700,0.4900,999.2794,7.8575,5.5432,1.9243,1590579791,N
85,1975721,7.8772,5.5059,1.9167,5.5300,-0.4900,-0.7000,999.2802,7.8426,5.5727,1.8999,1590579791,N
85,1975866,7.9968,5.4174,1.7874,-0.2800,-1.0500,-0.3500,999.2810,7.8764,5.5343,1.8719,1590579791,N
85,1976240,7.9083,5.5896,1.9286,3.2900,-0.7700,0.2100,999.2824,7.8664,5.5513,1.8635,1590579791,N
85,1976659,7.8915,5.5370,1.8760,2.8000,-0.2800,-0.9100,999.2823,7.8562,5.5690,1.8539,1590579791,N
85,1974543,7.9561,5.5753,1.8592,1.3300,-1.1200,-0.6300,999.2818,7.8617,5.5657,1.8403,1590579792,N
86,1971251,7.9322,5.5944,1.7874,-0.8400,-0.8400,0.2100,999.2806,7.8751,5.5517,1.8252,1590579792,N
86,1970370,7.8915,5.5992,1.8808,0.2800,0.4900,0.2100,999.2797,7.8673,5.5591,1.8363,1590579792,N
86,1969886,7.9442,5.5274,1.8185,-0.4200,-0.7000,-0.1400,999.2784,7.8814,5.5417,1.8285,1590579792,N
86,1969649,7.8700,5.5394,1.8114,-0.3500,-0.2800,0.0700,999.2771,7.8847,5.5381,1.8251,1590579792,N
86,1970166,7.9298,5.5083,1.8664,0.2100,-0.0700,-0.0700,999.2753,7.8888,5.5303,1.8312,1590579792,N
86,1971346,7.9322,5.5370,1.7803,0.2100,-0.7000,-0.2800,999.2749,7.8951,5.5267,1.8150,1590579792,N
86,1969909,7.9155,5.5178,1.7850,0.8400,0.0700,0.2100,999.2751,7.8958,5.5285,1.8060,1590579792,N
86,1966956,7.8963,5.5609,1.8664,-0.4900,-0.5600,0.2100,999.2753,7.8976,5.5230,1.8151,1590579792,N
86,1966380,7.8748,5.5896,1.7492,-0.4200,-0.2100,0.2100,999.2756,7.8959,5.5297,1.8018,1590579792,N
86,1966439,7.8844,5.5537,1.8114,-1.1900,-0.0700,0.2800,999.2767,7.8988,5.5239,1.8072,1590579793,N
86,1966931,7.9083,5.5131,1.8903,0.8400,-0.5600,0.0700,999.2768,7.8990,5.5205,1.8166,1590579793,N
86,1968844,7.9801,5.5202,1.7898,0.6300,-0.2100,0.5600,999.2762,7.9076,5.5120,1.8051,1590579793,N
86,1971406,7.8987,5.5753,1.8664,0.8400,-0.4900,0.7000,999.2761,7.9033,5.5168,1.8093,1590579793,N
86,1971978,7.9346,5.4891,1.7539,-0.2800,-0.4900,0.1400,999.2756,7.9145,5.5050,1.7961,1590579793,N
87,1970325,7.8963,5.5609,1.8090,-0.4900,-0.0700,0.8400,999.2760,7.9143,5.5044,1.7988,1590579793,N
86,1970804,7.9561,5.5322,1.8042,0.7700,0.7000,1.6100,999.2764,7.9157,5.5025,1.7987,1590579793,N
86,1972969,8.0112,5.5274,1.6798,-2.0300,2.2400,2.6600,999.2757,7.9298,5.4842,1.7923,1590579793,N
87,1975108,7.9801,5.8313,1.9190,0.3500,3.2900,5.8800,999.2759,7.9068,5.5070,1.8237,1590579793,N
86,1977124,8.1763,5.7763,1.6271,15.1200,6.2300,23.1700,999.2770,7.9278,5.5022,1.7450,1590579793,N
87,1979418,8.2887,4.6804,1.6295,30.4500,11.5500,23.8700,999.2775,7.9519,5.4866,1.6836,1590579794,N
86,1979673,8.4108,4.7498,1.5290,40.0400,14.0000,12.5300,999.2777,7.8267,5.6906,1.5904,1590579794,N
87,1977703,8.5304,5.3527,1.1318,36.8200,20.7200,18.9700,999.2786,7.6210,5.9971,1.4581,1590579794,N
86,1976280,8.4706,4.7450,0.5695,-8.1200,44.9400,38.2900,999.2791,7.7394,5.8135,1.5734,1590579794,N
87,1974656,8.3773,2.5507,1.9669,-30.0300,84.4200,23.8700,999.2794,8.0638,5.0374,2.4022,1590579794,N
86,1973525,7.7647,2.8044,5.5848,-45.9200,99.4000,2.8700,999.2799,7.8344,4.5515,3.7518,1590579794,N
87,1973306,6.4774,3.1107,5.9844,-143.4300,34.7200,41.5100,999.2800,7.7980,3.4667,4.8315,1590579794,N
86,1972147,7.0445,1.2132,6.8411,24.2900,-7.8400,32.0600,999.2799,7.9928,2.8897,4.8923,1590579794,N
86,1969324,7.8700,-0.1771,5.7643,4.8300,-12.6000,8.4000,999.2792,8.2513,2.1854,4.8282,1590579794,N
87,1966386,7.6259,1.8712,5.6806,49.9100,3.5000,8.0500,999.2777,8.2510,2.2586,4.7947,1590579794,N
86,1967973,9.2698,2.1583,5.6040,-28.6300,-18.6200,25.6900,999.2759,8.4737,1.8633,4.5710,1590579795,N
86,1971884,7.3077,1.2156,5.9270,8.1200,3.0800,-5.3900,999.2743,8.3368,1.8291,4.8293,1590579795,N
87,1974406,7.7169,2.9049,5.8122,7.0700,-6.2300,0.2800,999.2729,8.2103,2.0572,4.9526,1590579795,N
86,1975828,7.0947,1.9669,5.3791,-14.9100,-28.9100,-14.8400,999.2724,8.1407,2.0953,5.0507,1590579795,N
87,1973858,7.9729,1.4285,5.3121,-6.5100,-13.4400,-14.3500,999.2718,8.1056,2.0258,5.1347,1590579795,N
87,1969869,8.6548,2.5723,5.2379,-1.5400,-27.8600,-15.7500,999.2712,8.1574,2.1779,4.9883,1590579795,N
87,1961211,9.2267,2.5196,4.4650,5.4600,9.6600,5.1100,999.2700,8.2454,2.2104,4.8268,1590579795,N
87,1971347,7.9920,1.8473,6.1208,9.2400,57.4000,57.8200,999.2678,8.2170,1.8269,5.0313,1590579795,N
87,1977033,7.8796,0.8566,6.6185,-15.1900,-30.7300,-21.9800,999.2656,8.1186,1.7030,5.2305,1590579795,N
87,1977697,8.7266,1.7372,6.1639,-34.0900,-69.9300,-26.3900,999.2643,8.1588,1.7011,5.1682,1590579795,N
87,1977394,10.6600,2.1464,2.8522,-122.3600,-64.1200,-43.6100,999.2617,7.8032,1.5465,5.7349,1590579796,N
87,1973110,11.1027,0.8183,2.2947,-76.3700,-7.9800,-64.7500,999.2592,7.3695,1.5004,6.2936,1590579796,N
87,1967810,7.5613,2.5842,2.6560,2.6600,9.6600,-51.8000,999.2573,7.4943,2.0871,5.9708,1590579796,N
87,1966405,6.7597,3.3332,2.2708,18.9700,15.3300,-5.8800,999.2556,7.7363,2.5210,5.4741,1590579796,N
87,1963616,7.8939,4.0845,3.0700,40.7400,-5.5300,-18.4100,999.2548,8.0298,3.1500,4.6659,1590579796,N
87,1955075,8.3007,2.4072,4.6445,16.5900,19.6000,-15.5400,999.2549,7.9439,3.1764,4.7933,1590579796,N
87,1941308,7.2168,4.2138,4.0917,-13.0900,-6.0900,-69.0200,999.2543,7.6045,3.7834,4.9018,1590579796,N
87,1926118,7.3029,5.7787,3.6634,12.5300,0.6300,-23.9400,999.2534,7.4853,4.3265,4.6285,1590579796,N
87,1915348,7.2909,5.4676,4.1587,17.2900,12.5300,-0.7000,999.2519,7.3832,4.6062,4.5213,1590579796,N
87,1885514,7.3986,4.7067,3.8836,2.5900,-4.9000,-3.4300,999.2502,7.4348,4.6706,4.3681,1590579796,N
87,1885095,7.4632,5.4197,3.4457,6.0900,-7.4900,2.9400,999.2480,7.5059,4.8011,4.0965,1590579797,N
87,1938302,7.3938,5.4963,3.6156,1.0500,3.9200,4.6900,999.2454,7.4857,4.9060,4.0082,1590579797,N
87,1911004,7.4154,5.7882,3.7113,6.2300,15.8200,5.4600,999.2437,7.3831,5.0686,3.9961,1590579797,N
87,1843760,7.2790,5.1206,4.1635,15.1200,53.9000,3.6400,999.2435,7.1013,5.2304,4.2877,1590579797,N
87,1873982,8.8582,5.9318,5.4652,41.2300,69.9300,20.0200,999.2438,6.8209,5.3894,4.5388,1590579797,N
88,1894941,5.2810,4.5344,5.6064,69.5100,150.2900,-18.3400,999.2444,5.7673,5.8902,5.3116,1590579797,N
88,1905261,2.7374,8.7601,3.5844,100.3100,183.0500,10.2900,999.2448,4.4697,6.8295,5.4359,1590579797,N
88,1909555,3.2638,8.0231,4.2544,69.0900,151.6200,32.1300,999.2451,3.7956,7.0872,5.6156,1590579797,N
88,1916077,2.4120,9.2961,6.2979,77.7700,78.6800,30.4500,999.2452,3.4461,7.3254,5.5347,1590579797,N
88,1925390,2.9169,9.6335,4.4578,61.6000,16.8700,71.6100,999.2448,3.7943,7.4501,5.1255,1590579797,N
88,1930255,4.4794,8.5687,2.8379,34.9300,25.4100,60.0600,999.2441,4.2164,7.5326,4.6532,1590579798,N
88,1934887,2.8259,4.8407,3.7472,-0.0700,38.5000,78.6100,999.2438,4.4578,7.0936,5.0970,1590579798,N
89,1944320,2.5986,7.6164,2.8546,37.5200,42.7700,-36.5400,999.2433,3.9724,7.5649,4.8129,1590579798,N
88,1950064,1.9789,8.1930,2.9767,-23.4500,17.1500,-3.3600,999.2421,3.6202,7.6918,4.8889,1590579798,N
89,1956518,2.5436,9.1406,3.7759,8.4700,10.5700,12.1800,999.2408,3.4743,7.8604,4.7237,1590579798,N
89,1959953,3.6203,8.2026,2.6991,-21.7700,-4.6900,14.2100,999.2392,3.6939,7.9228,4.4447,1590579798,N
89,1960060,4.4937,7.1641,2.5723,-13.3700,-7.0700,14.9100,999.2378,4.0584,7.8925,4.1723,1590579798,N
89,1961460,4.0726,8.3366,3.0341,-3.5000,5.6000,14.0000,999.2363,4.1491,7.9344,4.0002,1590579798,N
89,1966143,3.1992,9.6503,1.6702,6.8600,-3.0100,11.4100,999.2354,4.0880,8.2295,3.4255,1590579799,N
89,1974909,4.5248,8.2983,3.3069,17.3600,-8.6800,-21.4200,999.2349,3.9624,8.3941,3.1636,1590579799,N
89,1982663,3.8381,8.6237,2.7805,-30.3800,0.3500,0.8400,999.2348,4.0306,8.3070,3.3042,1590579799,N
89,1985004,3.5486,7.6044,2.6393,-2.8700,-0.7000,-6.0200,999.2359,3.9848,8.3452,3.2633,1590579799,N
89,1979059,3.9505,8.1787,3.3141,29.1900,5.8100,-0.5600,999.2370,3.8714,8.4656,3.0849,1590579799,N
89,1973743,3.3284,8.7218,3.4624,-15.8200,11.0600,4.7600,999.2381,3.8063,8.4048,3.3231,1590579799,N
89,1970377,4.8239,9.6359,5.5944,-0.7000,-14.2100,-9.8700,999.2380,3.8015,8.3807,3.3885,1590579799,N
89,1970451,4.2760,7.2479,4.1324,-10.6400,2.1700,8.8900,999.2367,4.0346,8.1407,3.6907,1590579799,N
89,1972659,4.2114,7.6020,4.2018,0.7700,-6.0200,1.0500,999.2347,4.1156,8.0573,3.7832,1590579799,N
89,1974298,4.1803,8.3103,4.5129,1.9600,1.9600,-9.5200,999.2335,4.0089,8.0774,3.8541,1590579799,N
89,1974843,3.4265,7.1880,4.1946,-8.1200,3.6400,8.4700,999.2329,4.0223,7.9554,4.0868,1590579799,N
89,1973155,4.0319,7.8700,4.4028,9.9400,-15.0500,-3.8500,999.2323,4.0268,7.9930,4.0083,1590579799,N
90,1972651,4.2688,7.9179,4.2544,-2.2400,-3.7100,6.7900,999.2324,4.1296,7.9128,4.0625,1590579800,N
89,1974113,4.7474,7.9298,4.0415,1.9600,-2.5200,17.0100,999.2321,4.3478,7.8019,4.0494,1590579800,N
89,1975082,4.6325,7.9633,4.0295,5.1100,-4.3400,5.6700,999.2316,4.4253,7.7916,3.9848,1590579800,N
90,1976317,4.5200,7.6929,3.9003,-3.2200,0.2800,2.8000,999.2313,4.4759,7.7541,4.0013,1590579800,N
90,1977498,4.2736,7.8341,3.9912,2.8000,7.8400,-16.7300,999.2311,4.2862,7.8707,3.9812,1590579800,N
90,1976414,4.2640,7.9155,4.0391,-3.4300,4.3400,-12.8100,999.2308,4.1802,7.9170,4.0022,1590579800,N
90,1974164,3.8118,7.7839,4.2042,-4.9700,4.9700,3.0800,999.2303,4.1335,7.8822,4.1177,1590579800,N
90,1974430,3.5868,8.2193,3.9482,13.8600,3.3600,-10.7100,999.2307,3.9059,8.0675,3.9786,1590579800,N
90,1974874,4.0008,7.4871,3.7735,-7.6300,-1.1200,-2.8700,999.2308,3.9710,8.0134,4.0233,1590579800,N
90,1975203,3.6754,7.7551,3.0245,-11.4100,13.2300,4.3400,999.2300,3.9851,8.0140,4.0081,1590579800,N
90,1975887,3.3595,7.8269,4.3597,-2.5200,-1.8200,-15.1200,999.2289,3.7830,8.0788,4.0734,1590579801,N
90,1977362,3.3476,8.6596,3.6395,7.7700,-9.3100,-20.7200,999.2283,3.5520,8.2979,3.8340,1590579801,N
90,1978773,3.6969,8.7266,3.5414,10.0800,-3.2900,-2.9400,999.2282,3.5229,8.3879,3.6610,1590579801,N
90,1978917,3.4720,8.5328,3.8907,-11.7600,2.5200,11.2000,999.2286,3.6028,8.2835,3.8175,1590579801,N
90,1975960,3.4863,7.9920,4.2281,-29.3300,3.7800,10.3600,999.2299,3.7173,8.0650,4.1603,1590579801,N
90,1974585,3.4217,7.4560,4.1683,0.4200,-2.1700,5.1100,999.2305,3.7464,8.0213,4.2183,1590579801,N
91,1974189,3.5797,7.6834,4.6205,18.2700,-10.9200,-7.2100,999.2302,3.6783,8.1024,4.1221,1590579801,N
90,1973816,3.7232,7.8772,4.2736,-4.9000,1.1200,-2.5200,999.2302,3.6844,8.0629,4.1935,1590579801,N
90,1974117,3.5821,7.9968,4.0822,8.8900,-5.6700,0.8400,999.2300,3.6815,8.1116,4.1010,1590579801,N
90,1974607,3.4911,8.2241,4.1755,13.7900,3.9900,-0.5600,999.2302,3.5910,8.1898,4.0252,1590579801,N
90,1975723,3.8309,8.1571,4.0534,-5.3200,-1.8200,-0.3500,999.2301,3.6487,8.1491,4.0559,1590579802,N
90,1975740,3.6395,7.7169,4.2185,-10.1500,-0.0700,7.5600,999.2302,3.7445,8.0282,4.2068,1590579802,N
90,1971882,3.7352,7.5996,4.4076,-18.2700,-0.9800,3.6400,999.2296,3.8286,7.8811,4.4047,1590579802,N
90,1969520,3.6945,7.6738,4.5344,-0.6300,-0.9100,3.6400,999.2289,3.8434,7.8454,4.4552,1590579802,N
90,1968774,3.7496,7.8820,4.6923,3.9900,0.0700,-1.1200,999.2280,3.8020,7.8615,4.4623,1590579802,N
90,1968183,3.6491,7.8652,4.5775,-5.0400,-0.4200,2.0300,999.2274,3.7956,7.8292,4.5241,1590579802,N
89,1968273,3.7376,7.3962,4.5966,-1.0500,-0.6300,-0.2800,999.2271,3.8132,7.7911,4.5748,1590579802,N
89,1969093,3.5342,7.0253,4.6229,-11.8300,7.1400,-3.8500,999.2265,3.7776,7.7008,4.7537,1590579802,N
89,1970939,3.3021,7.7527,4.6014,7.4200,-8.4700,-4.2000,999.2266,3.6893,7.8075,4.6479,1590579802,N
89,1970970,3.3835,8.0542,4.9938,-7.2100,-5.6700,-2.5200,999.2265,3.6268,7.7984,4.7119,1590579802,N
89,1967765,3.7926,8.0160,4.8957,-20.8600,2.1000,-16.5900,999.2269,3.5501,7.7659,4.8226,1590579803,N
89,1966765,3.7089,7.1354,4.4770,-5.9500,1.4000,-6.0200,999.2276,3.5948,7.7320,4.8440,1590579803,N
89,1967517,2.6273,7.9035,4.6086,29.1900,2.8700,0.1400,999.2291,3.3577,7.9609,4.6390,1590579803,N
89,1967507,2.9958,8.4443,4.7019,4.4100,1.2600,5.1800,999.2297,3.2896,8.0025,4.6162,1590579803,N
89,1967893,3.5557,7.7288,4.5105,-4.9000,3.3600,10.7800,999.2310,3.4232,7.8992,4.6963,1590579803,N
88,1969348,3.8070,6.8746,3.7615,0.6300,2.1700,10.2200,999.2325,3.5880,7.8337,4.6829,1590579803,N
89,1970659,3.2782,8.0136,4.7378,16.1000,1.0500,10.0800,999.2342,3.5605,7.8890,4.6106,1590579803,N
89,1970976,3.4528,7.9298,4.2784,-18.7600,0.2100,12.3200,999.2343,3.6605,7.7742,4.7258,1590579803,N
88,1968850,3.7256,8.0327,4.7234,-0.2100,0.6300,1.7500,999.2341,3.6661,7.7796,4.7125,1590579803,N
88,1968355,3.6347,7.6116,4.4626,-6.6500,0.0700,0.7000,999.2341,3.6942,7.7525,4.7351,1590579803,N
88,1969214,3.8261,7.8245,4.5607,-12.1800,-1.1200,-14.9100,999.2338,3.6436,7.7760,4.7359,1590579804,N
88,1970829,3.4911,7.6379,4.6636,-7.9800,-7.2100,-22.6800,999.2330,3.5169,7.8545,4.7020,1590579804,N
88,1973766,2.9551,7.9920,4.8000,-5.7400,-3.2900,-11.4800,999.2325,3.3480,7.9196,4.7161,1590579804,N
88,1977588,2.9743,8.1882,4.6684,-0.6300,-2.7300,1.3300,999.2322,3.2868,7.9557,4.6984,1590579804,N
88,1981012,3.0820,7.7719,4.7593,2.5900,-0.4900,9.3100,999.2311,3.3180,7.9189,4.7384,1590579804,N
88,1979491,3.3045,7.9466,4.7617,9.1700,1.4700,14.9800,999.2299,3.3940,7.8916,4.7300,1590579804,N
88,1978566,3.4839,7.8078,4.5990,3.7100,-0.4900,-2.8700,999.2296,3.3961,7.9231,4.6757,1590579804,N
88,1980085,3.4193,7.7791,4.6995,-15.1200,-3.7100,0.9100,999.2288,3.4502,7.8346,4.7840,1590579804,N
88,1982190,3.1394,7.7480,4.7761,-2.3100,-2.7300,1.6800,999.2278,3.4241,7.8297,4.8106,1590579804,N
88,1985472,3.1537,7.8245,4.7282,-2.8700,-2.1000,-12.1100,999.2277,3.3102,7.8971,4.7800,1590579804,N
87,1990736,3.2542,7.9226,4.7713,4.1300,1.3300,8.3300,999.2278,3.3434,7.8818,4.7821,1590579805,N
87,1994995,3.4576,7.9466,4.7426,2.7300,0.9800,6.8600,999.2280,3.3991,7.8628,4.7742,1590579805,N
88,1993562,3.8357,7.9226,4.6540,1.3300,-4.9700,-4.9000,999.2286,3.4585,7.8864,4.6919,1590579805,N
87,1994373,3.5151,7.8700,4.9460,-0.9800,2.4500,1.6100,999.2293,3.4639,7.8482,4.7516,1590579805,N
87,1998036,3.4792,7.7575,4.6086,0.8400,-2.8700,-3.4300,999.2309,3.4635,7.8748,4.7077,1590579805,N
87,2000807,3.4911,8.0686,4.7665,0.4900,-0.3500,-8.1200,999.2324,3.4017,7.9236,4.6706,1590579805,N
87,2004362,3.1418,7.8532,4.6277,-1.2600,-0.3500,0.0700,999.2334,3.3639,7.9308,4.6859,1590579805,N
87,2008304,3.0652,7.6403,4.7809,12.3900,-2.3100,-8.2600,999.2348,3.2564,8.0211,4.6075,1590579805,N
86,2012303,3.2375,8.2050,4.4530,5.6000,-0.5600,-1.6100,999.2355,3.2299,8.0803,4.5218,1590579805,N
87,2010087,3.3523,7.9298,4.4363,1.3300,1.2600,7.0000,999.2359,3.3039,8.0427,4.5353,1590579805,N
86,2009343,3.2901,8.0207,4.4602,-3.2200,-0.4900,0.6300,999.2361,3.3164,8.0299,4.5488,1590579806,N
86,2011472,3.2303,7.8796,4.4219,-4.9000,-2.1700,-1.6100,999.2348,3.3182,8.0205,4.5641,1590579806,N
85,2013138,3.4552,8.1165,4.4722,-1.4000,-0.5600,1.6800,999.2332,3.3557,8.0121,4.5515,1590579806,N
86,2015099,3.2327,7.9585,4.5320,0.5600,1.0500,1.8900,999.2317,3.3455,8.0099,4.5628,1590579806,N
86,2017941,3.2830,7.9298,4.4698,0.4200,-0.1400,-0.1400,999.2310,3.3407,8.0180,4.5522,1590579806,N
85,2020667,3.3141,7.8963,4.5535,-0.2800,-0.2100,0.4900,999.2300,3.3473,8.0077,4.5654,1590579806,N
86,2016592,3.2925,7.9083,4.5894,-3.0100,-1.2600,-1.7500,999.2288,3.3399,7.9971,4.5892,1590579806,N
86,2015288,3.2399,7.9274,4.5559,-1.7500,-0.7700,-2.3800,999.2278,3.3164,8.0041,4.5941,1590579806,N
86,2016637,3.2112,7.9442,4.4985,-1.3300,-0.4200,-4.7600,999.2267,3.2751,8.0298,4.5789,1590579806,N
85,2018217,3.2279,7.5733,4.5488,-6.3700,0.0700,3.4300,999.2260,3.3267,7.9564,4.6690,1590579806,N
85,2018946,3.2734,7.4943,4.6612,-13.3000,1.1900,7.1400,999.2256,3.4066,7.8265,4.8282,1590579807,N
85,2019814,3.8883,7.8796,4.2664,1.1200,1.2600,0.4900,999.2256,3.5043,7.8504,4.7182,1590579807,N
85,2020531,3.6036,8.3103,4.3525,-3.1500,-3.6400,-4.6200,999.2256,3.4968,7.9133,4.6176,1590579807,N
85,2016584,3.4887,8.2457,4.5344,-19.1800,-2.5200,-4.1300,999.2258,3.4927,7.8706,4.6930,1590579807,N
85,2013507,3.4768,7.5876,4.6851,-13.1600,1.6100,16.7300,999.2257,3.6310,7.7048,4.8603,1590579807,N
85,2014010,3.9434,7.5541,4.7785,3.6400,-9.8000,7.5600,999.2264,3.7793,7.6689,4.8036,1590579807,N
85,2014941,3.9769,7.1378,4.5799,13.5100,-9.8700,-1.9600,999.2276,3.8618,7.7124,4.6665,1590579807,N
85,2015838,3.9290,7.7049,4.5033,-3.0800,-1.7500,-10.1500,999.2290,3.8246,7.7543,4.6275,1590579807,N
85,2018411,4.0630,7.8102,4.3502,3.2900,-5.7400,-4.8300,999.2305,3.8561,7.8055,4.5138,1590579807,N
85,2022153,3.8596,8.1212,4.0343,9.0300,-7.6300,3.9900,999.2317,3.8947,7.8888,4.3322,1590579807,N
85,2020274,4.0104,7.8987,4.0582,3.7100,-7.2100,9.0300,999.2319,4.0053,7.8778,4.2507,1590579808,N
85,2016636,4.0654,8.0471,4.1779,0.1400,6.7900,-10.9200,999.2326,3.9058,7.9418,4.2241,1590579808,N
85,2017289,3.8883,7.9346,4.1180,-8.6100,6.1600,-2.3100,999.2335,3.8856,7.9187,4.2856,1590579808,N
85,2018455,3.5270,7.5422,4.3765,-11.5500,11.4800,6.5800,999.2341,3.8665,7.8186,4.4822,1590579808,N
85,2018860,3.6156,7.8556,4.4674,1.5400,1.3300,1.2600,999.2347,3.8222,7.8391,4.4844,1590579808,N
85,2020577,3.8285,7.8102,4.4674,-0.0700,-2.6600,-1.7500,999.2349,3.8242,7.8469,4.4690,1590579808,N
85,2022884,3.6299,7.9370,4.4076,3.2900,-1.9600,-1.9600,999.2350,3.7756,7.8958,4.4240,1590579808,N
85,2020234,3.6754,7.8341,4.3765,-5.1800,0.4900,-5.0400,999.2354,3.7373,7.8999,4.4490,1590579808,N
85,2016408,3.6443,7.8174,4.4076,2.5900,-0.2800,0.8400,999.2358,3.7297,7.9115,4.4348,1590579808,N
85,2015913,3.8381,7.9490,4.3286,2.8700,2.5200,-0.4200,999.2366,3.7320,7.9299,4.4000,1590579808,N
85,2016670,3.4002,7.8221,4.5464,-9.5900,6.6500,7.9800,999.2372,3.7211,7.8451,4.5584,1590579809,N
85,2018203,3.8501,7.3173,4.5224,0.2800,-1.4700,0.8400,999.2374,3.7893,7.7976,4.5837,1590579809,N
85,2019618,3.6108,7.8150,4.5894,-4.4100,0.3500,3.7100,999.2376,3.7878,7.7699,4.6316,1590579809,N
85,2021021,3.4911,7.3436,4.4554,-10.8500,4.2000,7.4200,999.2376,3.8178,7.6777,4.7589,1590579809,N
85,2017017,3.7639,7.8628,4.4052,0.8400,-0.7000,0.5600,999.2374,3.8166,7.7239,4.6845,1590579809,N
85,2013163,3.9912,8.3414,4.5248,-11.7600,3.2200,2.3100,999.2366,3.8368,7.6988,4.7092,1590579809,N
85,2012916,3.8166,7.8102,4.4506,3.0100,-1.2600,2.3100,999.2358,3.8519,7.7325,4.6413,1590579809,N
85,2012884,3.5964,7.8221,4.3597,0.3500,0.7700,0.3500,999.2344,3.8120,7.7759,4.6017,1590579809,N
85,2013214,3.6634,7.8221,4.3908,0.7000,-0.4200,0.3500,999.2333,3.7943,7.8062,4.5648,1590579809,N
85,2014028,3.7567,7.7575,4.3190,-0.3500,0.2100,0.3500,999.2321,3.8021,7.8200,4.5345,1590579809,N
85,2015121,3.5246,7.6451,4.3502,5.2500,-0.6300,-2.5200,999.2305,3.7475,7.8761,4.4826,1590579810,N
84,2010031,3.7017,7.5111,4.1085,14.0000,-1.5400,1.8900,999.2294,3.7693,7.9393,4.3508,1590579810,N
85,2005997,9.8848,6.3458,6.3769,18.2700,-8.6800,24.0100,999.2283,4.3844,7.5849,4.4065,1590579810,N
84,2005511,4.4650,7.7432,3.4959,1.4700,-0.0700,-0.7700,999.2272,4.4179,7.6691,4.2235,1590579810,N
84,2005768,4.1731,8.0662,3.8668,-13.6500,12.6700,-15.0500,999.2258,4.2439,7.7467,4.2600,1590579810,N
85,2007173,3.7328,8.2241,3.9864,-35.7700,2.3800,-18.0600,999.2246,4.0789,7.7472,4.4174,1590579810,N
84,2009965,3.6849,8.0782,4.2712,5.9500,-0.6300,-1.2600,999.2241,3.9784,7.8423,4.3407,1590579810,N
85,2010294,3.5964,7.9681,4.2855,-1.5400,-0.2800,-0.2800,999.2242,3.9086,7.8743,4.3462,1590579810,N
84,2006117,3.5629,8.0949,4.2233,0.6300,-0.2800,-1.6800,999.2240,3.8278,7.9314,4.3141,1590579810,N
85,2004667,3.5222,8.0542,4.2090,0.2800,-0.7000,1.5400,999.2238,3.7833,7.9610,4.2988,1590579810,N
84,2004887,3.6323,7.8987,4.1659,-2.2400,-1.6800,1.8900,999.2233,3.7893,7.9569,4.3010,1590579811,N
84,2004903,3.7448,8.0542,4.2449,-1.2600,0.8400,0.3500,999.2228,3.7794,7.9624,4.2996,1590579811,N
85,2005737,3.6419,7.8245,4.1970,-1.9600,0.7000,-0.6300,999.2221,3.7647,7.9626,4.3122,1590579811,N
84,2007196,3.4935,7.9872,4.3286,5.7400,-7.7700,-2.2400,999.2209,3.7170,8.0202,4.2463,1590579811,N
85,2005324,3.2734,7.5541,4.2042,-6.0200,-0.3500,0.8400,999.2208,3.6869,7.9879,4.3324,1590579811,N
84,2001393,3.5916,8.0112,4.3430,0.0700,-1.8900,0.3500,999.2214,3.6778,7.9941,4.3288,1590579811,N
85,2000169,3.6419,8.0088,4.2018,-0.2100,0.2100,-0.3500,999.2224,3.6722,8.0070,4.3097,1590579811,N
84,2000261,3.6251,7.9179,4.2353,0.1400,-0.0700,-0.2100,999.2235,3.6705,8.0110,4.3037,1590579811,N
84,2000255,3.1274,7.9250,4.1372,-1.7500,-0.7700,0.8400,999.2244,3.5953,8.0395,4.3139,1590579811,N
85,2001127,3.7089,7.9322,4.2066,0.6300,-0.4900,-0.7700,999.2252,3.6203,8.0400,4.2921,1590579811,N
85,2002490,3.6012,8.0590,4.1970,0.5600,-0.4900,-0.3500,999.2264,3.6172,8.0537,4.2690,1590579812,N
85,2000141,3.6514,7.9920,4.2042,-0.6300,0.3500,-0.2100,999.2271,3.6275,8.0501,4.2670,1590579812,N
84,1995839,3.8668,8.3198,4.2544,-3.9900,6.5100,-1.1900,999.2273,3.6282,8.0383,4.2885,1590579812,N
85,1995661,3.6227,7.7360,4.3645,-1.0500,-1.8900,0.7000,999.2280,3.6575,8.0052,4.3255,1590579812,N
85,1996583,3.6562,7.8724,4.3095,3.7100,-3.0100,-1.1200,999.2290,3.6621,8.0213,4.2916,1590579812,N
85,1996559,3.5151,7.9944,4.2712,1.4700,-0.7700,-0.2100,999.2301,3.6372,8.0382,4.2812,1590579812,N
85,1997304,3.6060,7.8796,4.2712,-0.2100,-0.9800,-0.2100,999.2302,3.6444,8.0307,4.2892,1590579812,N
85,1998424,3.6778,8.0853,4.1587,2.2400,-0.7000,-1.2600,999.2302,3.6404,8.0581,4.2408,1590579812,N
85,1999964,3.6514,8.2002,4.3262,-7.0700,3.7800,1.1200,999.2306,3.6391,8.0208,4.3121,1590579812,N
85,1998991,3.6658,7.8293,4.3095,6.5100,-5.5300,-1.3300,999.2303,3.6538,8.0452,4.2537,1590579812,N
85,1995342,3.8070,8.0112,4.2377,1.6800,0.0700,0.9100,999.2300,3.6853,8.0384,4.2396,1590579813,N
85,1994507,3.4720,7.9585,4.2927,-0.4200,0.3500,-0.8400,999.2294,3.6449,8.0444,4.2630,1590579813,N
85,1994618,3.6060,7.8939,4.2066,1.7500,-2.6600,-0.2100,999.2289,3.6539,8.0510,4.2427,1590579813,N
85,1994630,3.6275,8.0925,4.2903,-0.7700,-2.6600,-0.2100,999.2290,3.6550,8.0503,4.2431,1590579813,N
85,1995494,3.5940,7.9490,4.2114,3.5000,3.2900,0.3500,999.2287,3.6353,8.0631,4.2357,1590579813,N
85,1997003,3.5749,7.8652,4.2209,0.9100,3.1500,0.3500,999.2283,3.6268,8.0562,4.2561,1590579813,N
85,1998524,3.6084,7.9609,4.1946,-0.4200,0.9100,0.5600,999.2281,3.6328,8.0506,4.2615,1590579813,N
85,1995779,3.5318,8.0518,4.1635,-3.0100,-1.0500,0.9100,999.2282,3.6344,8.0460,4.2688,1590579813,N
85,1993085,3.5007,7.9011,4.3932,5.6700,0.2800,-2.3800,999.2289,3.5875,8.0731,4.2574,1590579813,N
85,1992648,3.4768,7.8580,4.2592,-13.0900,-1.2600,-0.4200,999.2301,3.6079,8.0067,4.3642,1590579813,N
86,1992679,3.5773,8.0231,4.2209,2.0300,-0.4200,0.2100,999.2310,3.6055,8.0288,4.3254,1590579814,N
85,1992834,3.5868,8.0303,4.3190,0.8400,-0.4200,0.8400,999.2321,3.6080,8.0307,4.3197,1590579814,N
85,1993869,3.5246,8.0351,4.3119,-0.0700,0.3500,-0.8400,999.2329,3.5866,8.0400,4.3203,1590579814,N
85,1995262,3.4816,7.9490,4.1396,-1.1200,-0.7700,-1.6800,999.2331,3.5729,8.0565,4.3009,1590579814,N
85,1996088,3.5725,8.1404,4.2449,-1.0500,-0.9800,0.6300,999.2329,3.5796,8.0586,4.2914,1590579814,N
85,1991903,3.5414,7.8891,4.2114,2.8700,-0.5600,0.9100,999.2332,3.5885,8.0650,4.2719,1590579814,N
85,1989520,3.4050,7.9777,4.3143,-1.2600,-1.1200,1.6100,999.2334,3.5777,8.0546,4.3005,1590579814,N
85,1989405,3.8859,7.8341,4.2879,-1.4700,-2.8700,-1.8900,999.2336,3.6448,8.0250,4.2995,1590579814,N
85,1989279,3.8836,7.9968,4.2855,5.5300,2.3100,-4.6900,999.2343,3.6357,8.0564,4.2482,1590579814,N
85,1989840,2.9408,7.8532,4.2927,-3.8500,1.8900,1.9600,999.2354,3.5339,8.0553,4.3352,1590579814,N
85,1992226,2.2899,9.1717,4.7665,6.8600,-18.2000,1.7500,999.2369,3.3069,8.1914,4.2586,1590579815,N
85,1993964,3.5342,8.0040,4.2999,-1.4000,0.6300,1.9600,999.2374,3.3708,8.1479,4.2918,1590579815,N
85,1993248,3.5892,7.9992,4.3310,-1.4000,-0.2100,0.9100,999.2375,3.4263,8.1124,4.3151,1590579815,N
85,1989392,3.4863,7.9729,4.2688,0.0700,-0.3500,0.7700,999.2375,3.4530,8.1003,4.3166,1590579815,N
84,1988311,3.6275,7.9920,4.3502,-0.9800,-0.7000,0.2100,999.2373,3.4945,8.0754,4.3297,1590579815,N
85,1988650,3.6538,7.9561,4.2903,0.7700,-0.6300,-0.3500,999.2366,3.5289,8.0666,4.3183,1590579815,N
85,1988904,3.4696,8.0351,4.2736,0.6300,-0.3500,-0.7700,999.2350,3.5165,8.0780,4.3070,1590579815,N
85,1989722,3.5533,8.0686,4.2640,0.4900,-2.2400,1.6800,999.2336,3.5436,8.0739,4.2925,1590579815,N
84,1991050,3.6084,7.9633,4.2185,-1.4000,-2.2400,-0.2100,999.2328,3.5732,8.0636,4.2873,1590579815,N
84,1992077,3.5414,7.9585,4.2305,0.7000,-0.6300,-0.0700,999.2324,3.5762,8.0666,4.2791,1590579815,N
84,1988037,3.5821,7.8915,4.2042,-1.4700,0.1400,-0.2800,999.2319,3.5908,8.0546,4.2896,1590579816,N
84,1985919,3.5653,7.9801,4.2233,0.0700,-0.7000,0.6300,999.2310,3.5998,8.0537,4.2837,1590579816,N
84,1986158,3.5438,7.9872,4.2209,0.7000,0.7700,0.3500,999.2289,3.5943,8.0586,4.2790,1590579816,N
84,1986604,3.3500,7.8987,4.1946,-0.5600,-0.9100,1.1200,999.2274,3.5755,8.0619,4.2887,1590579816,N
84,1987674,3.7496,8.0518,3.9529,-5.3200,4.7600,15.2600,999.2262,3.7159,7.9774,4.3271,1590579816,N
84,1989679,3.7974,7.9370,3.9673,1.1200,-2.9400,0.3500,999.2259,3.7559,8.0007,4.2488,1590579816,N
84,1991620,4.0080,7.7743,4.4602,-2.1700,0.4900,1.8900,999.2262,3.8213,7.9349,4.3134,1590579816,N
84,1989154,3.7974,7.8293,4.2999,2.2400,0.6300,1.6800,999.2257,3.8292,7.9325,4.3108,1590579816,N
84,1985654,4.0152,7.8724,4.2736,1.2600,-3.6400,-0.6300,999.2254,3.8722,7.9293,4.2781,1590579816,N
83,1985134,3.7663,7.8939,4.1563,-1.6800,-2.4500,-0.4900,999.2250,3.8698,7.9373,4.2654,1590579816,N
83,1985660,3.8285,7.8604,4.1803,0.5600,-0.9800,1.6800,999.2258,3.8847,7.9357,4.2548,1590579817,N
83,1986267,3.8931,7.8461,4.1180,0.9100,-0.5600,1.1200,999.2272,3.9047,7.9378,4.2326,1590579817,N
83,1987642,3.8788,7.8269,4.0989,0.9100,-0.7000,0.3500,999.2285,3.9153,7.9440,4.2110,1590579817,N
83,1989352,3.8166,8.1547,3.8692,-9.5900,-1.9600,3.3600,999.2294,3.9485,7.9276,4.2109,1590579817,N
83,1989789,4.0175,7.5206,4.3095,-22.1200,1.5400,-1.1200,999.2302,4.0147,7.7853,4.4092,1590579817,N
83,1986985,3.8453,7.8197,4.3238,2.1700,0.4900,-2.3800,999.2317,3.9646,7.8269,4.3809,1590579817,N
83,1986589,4.2066,8.0112,4.2832,4.2000,2.9400,1.9600,999.2322,3.9898,7.8417,4.3312,1590579817,N
83,1987780,3.8333,7.6307,4.2520,2.4500,-1.4000,-3.0100,999.2322,3.9600,7.8686,4.3097,1590579817,N
83,1988570,3.8405,7.8628,4.3430,-3.5700,1.8900,1.3300,999.2319,3.9477,7.8498,4.3550,1590579817,N
83,1989962,3.8453,7.7312,4.3502,-1.0500,-1.4700,-2.0300,999.2314,3.9321,7.8532,4.3630,1590579817,N
83,1991842,3.7232,7.7719,4.3167,-1.4000,1.2600,-2.3100,999.2312,3.8854,7.8682,4.3778,1590579818,N
82,1992636,5.1398,6.3434,3.7759,-1.4000,-0.8400,-7.6300,999.2305,4.1796,7.7321,4.3493,1590579818,N
83,1988896,3.3715,8.0542,4.5464,7.1400,2.3100,-2.3800,999.2295,3.9739,7.8417,4.3458,1590579818,N
83,1987228,3.4265,8.1523,4.2329,0.4900,-5.4600,2.5900,999.2299,3.9016,7.8979,4.3094,1590579818,N
82,1988260,3.8955,8.2074,4.2664,-6.3700,2.0300,3.7100,999.2301,3.9130,7.8740,4.3428,1590579818,N
82,1989704,3.7280,7.6642,4.3645,1.9600,2.3800,1.7500,999.2301,3.8931,7.8697,4.3683,1590579818,N
82,1990935,3.7472,7.8269,4.4770,0.0700,0.8400,0.6300,999.2297,3.8682,7.8653,4.3983,1590579818,N
82,1993210,3.8237,7.6499,4.3095,1.9600,-3.0100,0.6300,999.2292,3.8897,7.8663,4.3774,1590579818,N
82,1994095,4.0271,8.2122,4.2760,5.2500,-7.2800,7.9100,999.2290,3.9656,7.8783,4.2868,1590579818,N
82,1989455,3.7519,7.5182,4.2377,-0.7700,-3.3600,18.2000,999.2288,4.0917,7.7800,4.3473,1590579818,N
82,1987953,4.3956,7.5924,4.1563,3.4300,-3.5000,7.5600,999.2288,4.2183,7.7402,4.2971,1590579819,N
82,1988616,4.4674,7.2957,3.8572,14.5600,-2.9400,-25.8300,999.2292,4.1119,7.9135,4.0792,1590579819,N
82,1988462,4.1324,7.7934,4.0439,-1.3300,3.2200,-11.5500,999.2294,4.0356,7.9542,4.0762,1590579819,N
82,1989415,3.8429,8.0518,4.0056,-6.2300,3.3600,-5.1800,999.2294,3.9644,7.9733,4.1086,1590579819,N
82,1991676,3.7137,7.8700,4.1396,-0.9800,1.0500,-2.5200,999.2297,3.9078,7.9880,4.1342,1590579819,N
82,1992574,4.0032,8.0758,4.1157,-1.4700,1.7500,2.2400,999.2303,3.9309,7.9714,4.1443,1590579819,N
82,1988942,2.4550,7.6881,4.6205,-0.2800,3.4300,-2.7300,999.2318,3.6284,8.0297,4.3046,1590579819,N
82,1988297,3.5366,7.7719,4.3071,-0.2100,-0.7000,-0.8400,999.2338,3.6253,8.0210,4.3233,1590579819,N
82,1989141,3.6538,8.4562,4.3310,-1.6800,0.7000,1.4000,999.2350,3.6150,8.0317,4.3121,1590579819,N
82,1988941,3.8572,7.9011,4.3693,-1.0500,-1.1200,1.7500,999.2361,3.6808,7.9914,4.3313,1590579819,N
82,1989880,4.0319,7.7671,4.3214,-0.4200,-1.7500,-2.0300,999.2368,3.7481,7.9629,4.3260,1590579820,N
82,1991203,3.8501,7.8054,4.2401,0.7000,-0.4200,-2.7300,999.2369,3.7599,7.9680,4.3063,1590579820,N
82,1992050,3.7113,8.2026,4.3525,-3.2900,1.8200,-2.6600,999.2357,3.7172,7.9796,4.3219,1590579820,N
82,1988732,3.4433,7.7551,4.1683,-3.7800,1.0500,0.2800,999.2343,3.6933,7.9733,4.3539,1590579820,N
82,1986813,3.7232,8.0830,4.2784,0.8400,-0.2100,1.8900,999.2335,3.7064,7.9794,4.3314,1590579820,N
82,1987091,3.7232,7.8556,4.2042,-1.2600,-0.2100,2.4500,999.2333,3.7414,7.9618,4.3338,1590579820,N
82,1987603,3.7783,7.3675,4.1946,0.9800,-5.7400,-4.2700,999.2325,3.7821,7.9532,4.3142,1590579820,N
82,1988437,4.1922,7.9107,4.1683,-1.7500,-3.9200,-2.6600,999.2317,3.8581,7.9400,4.2710,1590579820,N
82,1989665,3.6969,8.2241,4.1348,23.5200,-6.7200,-2.7300,999.2315,3.7725,8.1021,4.0367,1590579820,N
82,1989580,3.9099,7.8867,3.6251,12.1800,-7.9800,4.9700,999.2311,3.8585,8.1416,3.8726,1590579820,N
82,1987071,3.7376,7.9657,3.6586,13.9300,-1.8200,8.1900,999.2312,3.8861,8.1788,3.7651,1590579821,N
82,1987117,4.7067,7.9609,3.4983,4.8300,8.9600,-0.1400,999.2309,3.9924,8.1534,3.7086,1590579821,N
82,1986496,3.8213,8.3438,3.7902,-23.0300,12.5300,-1.1900,999.2312,3.9535,8.0716,3.9229,1590579821,N
82,1989643,4.2257,7.9585,4.0510,-20.7200,-1.1900,-13.6500,999.2308,3.9590,8.0048,4.0521,1590579821,N
82,1992059,3.8524,7.7504,4.1946,-0.2800,-0.4900,-2.3800,999.2308,3.9391,7.9948,4.0910,1590579821,N
82,1993572,3.7878,8.0542,4.2616,0.1400,0.4200,-3.1500,999.2313,3.8799,8.0127,4.1125,1590579821,N
82,1992617,3.6132,8.1452,4.1372,0.3500,-0.4200,0.1400,999.2327,3.8264,8.0382,4.1130,1590579821,N
82,1988232,3.7041,7.9466,4.2592,-2.2400,0.2800,2.5200,999.2331,3.8278,8.0079,4.1703,1590579821,N
82,1986827,3.8477,7.7862,4.2712,-4.8300,1.1200,2.7300,999.2328,3.8671,7.9487,4.2467,1590579821,N
82,1987862,4.1252,8.0327,4.2520,18.8300,-10.2900,-5.8100,999.2321,3.8614,8.0544,4.0481,1590579821,N
82,1987956,3.6849,7.7671,4.2209,0.5600,1.0500,-2.1700,999.2311,3.8242,8.0474,4.0970,1590579822,N
82,1988990,3.6491,7.8772,4.1946,-0.3500,-0.4900,0.8400,999.2304,3.8102,8.0353,4.1336,1590579822,N
82,1990652,3.7448,7.9107,4.2951,-1.6100,-0.3500,0.7700,999.2300,3.8118,8.0090,4.1828,1590579822,N
82,1989466,3.8859,7.6953,4.2233,-0.6300,-0.6300,-0.2800,999.2300,3.8455,7.9782,4.2109,1590579822,N
83,1985312,3.6610,7.6570,4.0104,-2.5900,0.9800,-0.7000,999.2298,3.8382,7.9733,4.2268,1590579822,N
83,1984748,3.6778,8.2887,4.3908,7.1400,0.9800,-1.9600,999.2295,3.7543,8.0351,4.1849,1590579822,N
83,1985541,3.5868,7.9537,4.2138,-2.3800,2.1000,1.4000,999.2295,3.7364,8.0200,4.2296,1590579822,N
83,1986665,3.8285,7.7097,4.3837,-3.9200,-0.8400,1.4700,999.2290,3.7881,7.9567,4.3025,1590579822,N
83,1988435,3.7017,7.3962,4.3573,3.2900,-3.5000,-4.9700,999.2286,3.7808,7.9578,4.3069,1590579822,N
83,1989857,3.6275,7.8030,4.2784,3.2900,0.0700,-3.0100,999.2283,3.7376,7.9885,4.2878,1590579822,N
83,1988449,3.4887,8.0901,4.2425,1.1200,-0.7000,0.7700,999.2280,3.6953,8.0158,4.2734,1590579823,N
83,1984502,3.6610,8.0016,4.2616,1.4700,-1.4700,3.8500,999.2274,3.7197,8.0073,4.2682,1590579823,N
83,1983318,3.9218,7.8963,4.3454,-3.7100,0.7000,1.6100,999.2270,3.7741,7.9565,4.3153,1590579823,N
83,1983941,3.9290,7.5517,4.2688,0.7700,-1.9600,-1.3300,999.2269,3.8253,7.9315,4.3161,1590579823,N
83,1984260,3.8836,7.8580,4.2903,3.2200,-1.6800,-3.4300,999.2260,3.8172,7.9564,4.2774,1590579823,N
83,1985437,3.4863,8.2265,3.8405,1.8900,-0.2100,-2.3800,999.2252,3.7394,8.0457,4.1778,1590579823,N
83,1987772,3.4887,7.9609,4.3884,-0.7700,-0.9100,2.1000,999.2245,3.7139,8.0282,4.2338,1590579823,N
83,1987209,3.3858,7.8197,4.4052,-0.4200,-5.5300,4.9700,999.2252,3.7190,7.9997,4.2831,1590579823,N
84,1984026,4.0271,8.0207,4.4387,-10.2200,1.0500,3.1500,999.2252,3.8015,7.9075,4.3807,1590579823,N
83,1982903,4.0056,7.8532,4.3956,0.2100,0.3500,-0.5600,999.2252,3.8332,7.8933,4.3786,1590579823,N
84,1983118,3.8596,7.6714,4.3932,3.3600,-2.2400,-2.8700,999.2250,3.8341,7.9049,4.3569,1590579824,N
84,1983646,3.8405,7.9418,4.3334,1.1900,-0.6300,-2.8000,999.2247,3.8146,7.9278,4.3323,1590579824,N
84,1984936,3.7184,7.8556,4.2999,0.2800,-0.1400,-1.4700,999.2243,3.7937,7.9395,4.3293,1590579824,N
84,1986967,3.7232,7.9633,4.2425,-0.3500,0.2800,-0.1400,999.2228,3.7818,7.9507,4.3191,1590579824,N
84,1984806,3.7161,7.8509,4.2568,-0.6300,0.4900,2.4500,999.2217,3.7951,7.9378,4.3312,1590579824,N
84,1981880,3.9003,7.7934,4.3502,-1.9600,0.4900,3.1500,999.2211,3.8449,7.8953,4.3648,1590579824,N
84,1981723,3.8381,7.5852,4.5153,0.4900,0.7000,-5.6700,999.2205,3.8167,7.8911,4.3969,1590579824,N
84,1982315,3.8931,7.5446,3.6586,-12.5300,12.7400,1.6800,999.2198,3.8681,7.8452,4.4341,1590579824,N
84,1984543,3.8429,7.8150,4.4506,-12.5300,-0.2800,-2.5200,999.2195,3.8719,7.7948,4.5188,1590579824,N
84,1987400,3.5294,7.7623,4.3980,-0.2100,-0.2100,-1.0500,999.2190,3.8127,7.8274,4.5128,1590579824,N
84,1990263,3.8429,7.7982,4.4267,-1.2600,-0.9800,1.1200,999.2184,3.8364,7.8187,4.5079,1590579825,N
84,1987726,3.5581,7.5159,4.3573,-4.7600,-0.4900,2.5200,999.2181,3.8394,7.7904,4.5540,1590579825,N
84,1984496,3.8261,7.8006,4.3238,-1.1200,-0.9800,2.8000,999.2186,3.8696,7.7907,4.5279,1590579825,N
84,1984094,3.8548,7.9705,4.4339,-1.5400,1.9600,-0.0700,999.2192,3.8541,7.8035,4.5189,1590579825,N
84,1984290,3.9051,7.5972,4.3765,-3.2900,1.6800,0.3500,999.2199,3.8829,7.7771,4.5399,1590579825,N
84,1985487,3.6993,7.7791,4.4865,0.7700,-1.5400,-1.4000,999.2206,3.8485,7.8039,4.5232,1590579825,N
84,1986955,3.8381,7.8509,4.5033,1.8200,0.2100,-1.8200,999.2210,3.8283,7.8268,4.5006,1590579825,N
84,1987839,3.6514,8.0471,4.3884,1.4700,-5.4600,-2.7300,999.2210,3.7883,7.8837,4.4348,1590579825,N
84,1983498,3.4361,7.9490,4.3717,0.0700,0.9100,2.7300,999.2217,3.7399,7.9020,4.4433,1590579825,N
84,1981428,3.6754,7.8197,4.4195,0.0700,-0.1400,3.6400,999.2219,3.7597,7.8851,4.4565,1590579825,N
84,1981641,3.8812,7.8700,4.4937,0.0700,1.3300,2.9400,999.2225,3.7946,7.8596,4.4719,1590579826,N
84,1981975,3.9673,7.6834,4.4698,-0.9100,-0.7700,0.4200,999.2225,3.8424,7.8300,4.4830,1590579826,N
84,1982938,4.1779,7.7527,4.4937,1.4000,0.2800,-2.9400,999.2226,3.8791,7.8233,4.4630,1590579826,N
85,1984464,3.7424,7.8030,4.4387,1.2600,0.9800,-2.4500,999.2229,3.8355,7.8496,4.4545,1590579826,N
84,1984751,3.6491,7.9848,4.4411,0.1400,-0.9100,-2.4500,999.2231,3.7824,7.8844,4.4385,1590579826,N
84,1980393,3.8189,7.7767,4.3980,-0.7000,-0.5600,2.2400,999.2231,3.8153,7.8636,4.4471,1590579826,N
85,1978687,3.8166,7.8509,4.4698,2.0300,0.5600,1.4700,999.2231,3.8197,7.8636,4.4435,1590579826,N
85,1979408,3.9601,7.7815,4.4267,-0.7700,0.2800,2.3800,999.2228,3.8655,7.8349,4.4545,1590579826,N
85,1980173,3.8812,7.8006,4.4506,-0.0700,-0.0700,1.1900,999.2230,3.8788,7.8258,4.4590,1590579826,N
85,1981537,3.9314,7.7336,4.4004,0.9100,0.3500,-0.1400,999.2230,3.8917,7.8249,4.4492,1590579826,N
85,1983411,3.3811,7.6738,4.8431,7.9100,0.1400,-1.9600,999.2231,3.7716,7.8656,4.4808,1590579827,N
85,1984526,3.7687,7.7551,4.3765,0.2800,-0.1400,-0.1400,999.2230,3.7808,7.8677,4.4695,1590579827,N
85,1980603,3.8955,7.7623,4.3837,0.6300,0.7700,0.8400,999.2235,3.8115,7.8580,4.4603,1590579827,N
85,1979060,3.9362,7.6834,4.4148,0.4900,-0.2800,0.3500,999.2233,3.8478,7.8416,4.4580,1590579827,N
85,1979576,3.9936,7.7599,4.3980,0.4200,-0.4900,-0.7000,999.2234,3.8760,7.8365,4.4426,1590579827,N
85,1980224,3.9147,7.7432,4.4315,0.3500,0.3500,-1.7500,999.2239,3.8751,7.8379,4.4408,1590579827,N
85,1981369,3.9027,7.6140,4.4626,0.8400,0.1400,-1.6100,999.2239,3.8806,7.8296,4.4506,1590579827,N
85,1983006,3.9123,7.6642,4.3741,-1.3300,-1.8200,-1.6100,999.2244,3.8980,7.8229,4.4473,1590579827,N
85,1984581,3.8501,7.7671,4.4291,0.4900,-2.2400,-0.6300,999.2256,3.8975,7.8293,4.4364,1590579827,N
85,1981143,3.7543,7.6714,4.3765,0.7700,-2.6600,-1.7500,999.2266,3.8822,7.8443,4.4233,1590579827,N
85,1978590,3.8572,7.6953,4.3167,-3.7100,-0.8400,3.7800,999.2277,3.9270,7.8072,4.4494,1590579828,N
86,1978428,3.8692,7.7049,4.2903,3.2900,-7.7000,-6.5100,999.2292,3.9090,7.8639,4.3646,1590579828,N
86,1977998,3.7591,7.9968,4.1372,3.5000,-4.9700,-5.5300,999.2299,3.8573,7.9428,4.2667,1590579828,N
86,1977382,3.6514,7.7862,4.1874,-8.8900,7.7000,-13.7200,999.2300,3.7287,7.9711,4.3277,1590579828,N
86,1977913,3.4026,7.4560,4.1252,-5.1100,13.3000,-4.7600,999.2313,3.6375,7.9642,4.4171,1590579828,N
86,1981010,3.1370,8.2241,5.2068,7.5600,19.6700,-21.0000,999.2319,3.2836,8.0786,4.4861,1590579828,N
86,1979329,3.9075,7.9107,5.4174,7.1400,-0.0700,-6.4400,999.2327,3.3181,8.0298,4.5479,1590579828,N
86,1978055,2.1153,7.8628,3.6227,14.8400,-22.8900,-20.3700,999.2344,3.0247,8.3377,4.1837,1590579828,N
86,1978136,2.2181,8.3916,3.2949,-4.7600,-23.8700,-26.1800,999.2349,2.7811,8.5537,3.9077,1590579828,N
86,1978159,2.8092,7.7312,3.2351,-4.4100,-22.9600,-21.0700,999.2363,2.7735,8.6338,3.7330,1590579828,N
86,1979866,1.2969,10.5236,2.7637,-67.9700,-6.5800,-2.8000,999.2372,2.7479,8.4453,4.1588,1590579829,N
86,1980328,1.3759,7.5182,4.6636,11.0600,7.0000,-23.2400,999.2373,2.2692,8.6020,4.1264,1590579829,N
86,1982159,1.0528,8.8798,3.1226,-4.2700,0.5600,-13.0900,999.2369,1.9106,8.7836,3.9203,1590579829,N
86,1979450,0.8279,8.7386,3.5151,9.1000,1.7500,-0.4200,999.2375,1.6528,8.8984,3.7759,1590579829,N
86,1976228,1.3137,9.0568,4.0415,13.2300,-0.0700,-3.8500,999.2379,1.5228,8.9715,3.6556,1590579829,N
86,1975693,1.7755,8.6812,3.7256,-1.4700,3.5700,-0.6300,999.2380,1.5701,8.9427,3.7057,1590579829,N
86,1977291,1.2491,8.7506,3.8429,13.7900,5.3900,9.0300,999.2380,1.5459,8.9426,3.7162,1590579829,N
86,1979454,1.5362,8.5735,3.9745,12.0400,2.1000,3.2900,999.2389,1.5560,8.9384,3.7221,1590579829,N
86,1983268,1.5314,8.9420,3.9362,1.5400,-1.2600,-4.2700,999.2403,1.5164,8.9527,3.7040,1590579829,N
86,1987790,1.3400,8.8750,3.8740,-5.2500,-0.2800,2.6600,999.2414,1.5105,8.9118,3.8038,1590579829,N
86,1986693,1.8497,8.3414,4.1228,-1.8900,-14.2100,1.2600,999.2420,1.6378,8.8623,3.8663,1590579830,N
86,1986386,2.1057,8.6836,4.3238,-14.8400,-16.2400,-6.4400,999.2429,1.7408,8.8002,3.9618,1590579830,N
86,1989453,0.7418,9.0640,3.6586,-5.1100,-0.7700,-7.0700,999.2428,1.4856,8.8793,3.8887,1590579830,N
86,1992723,1.1725,8.3844,4.1898,-3.6400,0.2800,1.3300,999.2424,1.4472,8.8314,4.0103,1590579830,N
86,1995348,1.7563,8.6548,4.3358,-8.1200,5.4600,2.6600,999.2429,1.5248,8.7342,4.1904,1590579830,N
86,2000529,1.6223,8.9444,4.8383,11.2000,-1.8200,-1.4000,999.2431,1.5116,8.7508,4.1603,1590579830,N
86,2011322,1.7850,8.4562,3.9864,1.7500,-1.8900,-0.1400,999.2424,1.5789,8.7540,4.1285,1590579830,N
86,2015734,2.0913,9.4612,3.9075,-13.3700,7.7700,-1.1200,999.2418,1.6468,8.7223,4.1689,1590579830,N
86,2018729,1.5960,8.2672,4.8479,0.5600,-0.2800,1.0500,999.2415,1.6514,8.6515,4.3121,1590579830,N
86,2018706,1.5051,9.2363,4.3406,-2.8700,2.8000,-1.1200,999.2419,1.5944,8.6666,4.3032,1590579830,N
86,2017456,1.5912,8.2935,4.4722,-1.8900,0.4900,-1.1200,999.2415,1.5953,8.6339,4.3682,1590579831,N
86,2016671,1.6104,8.3797,4.6804,-6.8600,1.3300,-0.2100,999.2401,1.6037,8.5662,4.4965,1590579831,N
86,2016679,1.6391,8.3414,4.7378,-14.2100,1.4700,1.8200,999.2388,1.6366,8.4576,4.6862,1590579831,N
86,2016361,1.5051,8.3653,4.9412,-3.9900,2.3800,6.3000,999.2388,1.6502,8.3738,4.8298,1590579831,N
86,2012439,1.6917,8.0686,4.9340,0.7000,-0.4200,0.8400,999.2388,1.6723,8.3457,4.8706,1590579831,N
86,2011321,1.7444,7.8987,4.8144,-5.0400,-1.1900,-2.8700,999.2385,1.6898,8.3195,4.9093,1590579831,N
86,2012220,1.7157,8.0518,5.1709,-13.5100,-2.4500,0.7700,999.2382,1.7230,8.2183,5.0657,1590579831,N
86,2013067,1.6726,8.1978,5.1709,-0.3500,-3.0800,-1.4000,999.2379,1.7129,8.2257,5.0570,1590579831,N
85,2014637,1.2945,9.0473,5.4269,-4.6900,1.3300,-3.0800,999.2378,1.5864,8.2465,5.0645,1590579831,N
85,2016095,1.6104,7.8437,5.2546,-6.0200,1.4700,-0.8400,999.2371,1.5938,8.1761,5.1751,1590579831,N
85,2017460,1.8903,8.1452,5.4604,7.3500,-2.1700,-0.7700,999.2366,1.6434,8.1876,5.1412,1590579832,N
85,2015229,1.6678,7.3077,5.4126,-9.6600,2.5900,1.3300,999.2362,1.6775,8.0374,5.3625,1590579832,N
85,2014074,1.8808,7.8413,5.2953,-0.0700,-2.5900,0.0700,999.2361,1.7340,8.0314,5.3536,1590579832,N
85,2015028,1.6941,8.1117,5.3456,1.1200,0.1400,-1.9600,999.2356,1.7101,8.0567,5.3231,1590579832,N
85,2016073,1.6774,7.9298,5.3025,1.8900,-1.2600,-1.9600,999.2355,1.6981,8.0779,5.2948,1590579832,N
85,2017474,1.6080,7.9346,5.2570,0.1400,0.6300,0.8400,999.2349,1.6884,8.0679,5.3131,1590579832,N
85,2019187,1.6510,7.9968,5.2642,-0.6300,0.9100,1.0500,999.2343,1.6881,8.0555,5.3319,1590579832,N
85,2020856,1.8305,7.6594,5.5729,3.9900,2.4500,1.4700,999.2335,1.7215,8.0040,5.3983,1590579832,N
85,2017473,1.3280,7.9250,5.4437,6.6500,0.1400,-0.6300,999.2331,1.6370,8.0434,5.3660,1590579832,N
85,2017177,1.5386,8.1500,5.3360,15.1200,-2.8000,1.5400,999.2329,1.6257,8.1311,5.2356,1590579832,N
85,2019634,1.6271,6.1783,5.9342,-2.5200,-1.6100,2.2400,999.2333,1.6818,7.9807,5.4452,1590579833,N
85,2021240,1.8879,8.1021,5.1757,-2.5900,0.2100,-1.4700,999.2341,1.7155,8.0049,5.3990,1590579833,N
85,2023050,1.7468,8.0327,5.3169,-0.5600,-0.3500,-2.7300,999.2349,1.7065,8.0298,5.3648,1590579833,N
85,2024980,1.6247,7.4943,5.0632,13.3000,-3.8500,2.2400,999.2350,1.7310,8.0891,5.2669,1590579833,N
85,2026354,1.8640,8.3151,4.6493,8.4000,2.3800,2.9400,999.2354,1.7693,8.1728,5.1231,1590579833,N
85,2021976,2.0052,8.5376,4.4626,24.7100,-6.0900,-8.2600,999.2357,1.7595,8.4287,4.6939,1590579833,N
85,2019940,1.6104,8.7171,4.3717,-7.2100,1.1900,-3.7100,999.2363,1.7054,8.4599,4.6574,1590579833,N
85,2019986,1.7922,8.7027,4.5272,-17.7800,3.1500,5.3200,999.2371,1.7620,8.3610,4.8125,1590579833,N
85,2020586,1.6032,8.5280,4.7402,-16.4500,5.1800,-11.4800,999.2380,1.6472,8.3607,4.8535,1590579833,N
85,2022634,1.4740,8.3940,5.2235,-11.5500,-1.1200,-1.0500,999.2379,1.6136,8.2942,4.9772,1590579834,N
85,2024024,2.7900,7.3508,4.0343,-11.4100,2.4500,-6.0900,999.2380,1.8691,8.2527,4.9567,1590579834,N
85,2024553,2.0554,8.1523,5.3312,2.4500,0.2100,-0.4900,999.2382,1.8950,8.2231,4.9961,1590579834,N
86,2023224,1.4381,8.1906,5.0154,14.4200,-3.2900,2.1000,999.2390,1.8170,8.3007,4.8957,1590579834,N
86,2022812,1.7061,8.0303,4.8048,6.2300,-1.5400,-3.3600,999.2399,1.7813,8.3493,4.8255,1590579834,N
86,2023297,1.8832,8.6524,4.8766,2.4500,-1.4000,-3.7100,999.2405,1.7666,8.3944,4.7522,1590579834,N
86,2023856,1.3184,8.1667,4.6421,-3.0100,0.2100,-1.1200,999.2414,1.6795,8.3986,4.7763,1590579834,N
86,2024986,4.4028,8.2840,4.8359,3.9200,-13.7900,-7.7700,999.2421,2.1287,8.3675,4.6502,1590579834,N
86,2026238,1.2993,9.4828,5.0201,-1.5400,-3.8500,-13.5800,999.2427,1.9223,8.4784,4.5378,1590579834,N
86,2025399,1.7109,8.1954,4.5009,7.3500,-15.8200,-9.8000,999.2435,1.8557,8.5844,4.3630,1590579834,N
86,2017580,0.4211,10.6528,5.2211,12.1800,29.4000,9.1700,999.2441,1.6381,8.5641,4.4881,1590579834,N
86,2015088,0.5121,9.9757,4.9364,37.2400,1.8200,33.8800,999.2440,1.7172,8.5460,4.4930,1590579835,N
86,2015243,2.0124,6.8028,1.3567,12.2500,2.8700,34.3000,999.2446,2.1196,8.5850,4.2398,1590579835,N
86,2013349,3.9314,8.1260,1.4548,-13.6500,23.8700,48.0200,999.2449,2.8347,8.4685,4.0521,1590579835,N
86,2018436,4.0989,7.3747,3.3141,-4.4800,58.2400,46.6900,999.2449,3.2684,8.1130,4.4348,1590579835,N
86,2024898,0.7968,6.2788,8.4108,23.6600,12.6000,7.4900,999.2455,2.8123,7.9246,5.0460,1590579835,N
86,2027424,2.6895,9.5928,3.6467,13.4400,3.0100,54.9500,999.2456,3.1135,7.9523,4.8205,1590579835,N
86,2030919,3.1513,6.5755,6.2692,-24.1500,-3.9900,39.1300,999.2451,3.4032,7.4292,5.4218,1590579835,N
86,2036136,5.0536,7.0875,5.7835,-49.0700,-24.5700,6.3700,999.2448,3.8274,7.0459,5.6460,1590579835,N
86,2042505,4.5966,6.7047,6.3458,-27.4400,-6.2300,-1.7500,999.2439,3.9670,6.7814,5.8690,1590579835,N
86,2045453,4.0510,6.3841,5.5633,22.6100,-4.8300,23.3100,999.2423,4.1632,6.7776,5.7361,1590579835,N
86,2046714,4.4411,7.0181,4.8838,38.7800,-3.9200,7.7700,999.2415,4.2779,7.0323,5.3308,1590579836,N
86,2045371,4.7689,6.7262,5.0824,22.8900,3.0100,-0.9100,999.2406,4.3475,7.1151,5.1618,1590579836,N
86,2040545,4.3262,7.5159,4.9723,-65.7300,7.0700,-20.7900,999.2397,4.2304,6.9179,5.5152,1590579836,N
86,2035294,4.2760,5.4939,5.4197,10.9200,4.3400,-18.2000,999.2385,4.1496,6.9845,5.4925,1590579836,N
86,2039425,4.6780,6.2572,5.5178,-2.5900,-1.3300,-12.8100,999.2379,4.2142,6.9236,5.5203,1590579836,N
86,2044631,3.9123,7.4560,5.9198,-17.2200,-4.5500,-9.3800,999.2377,4.0954,6.9190,5.6148,1590579836,N
86,2047755,3.6538,6.5109,5.7069,-21.4200,-0.9100,-7.0700,999.2383,4.0171,6.8142,5.7966,1590579836,N
86,2049483,3.7496,6.8507,5.8505,-4.2000,-0.9100,-5.1800,999.2383,3.9443,6.8332,5.8241,1590579836,N
86,2051314,3.8213,6.8267,6.0012,-7.7000,-0.3500,5.8800,999.2389,3.9543,6.7530,5.9102,1590579836,N
86,2049358,3.6634,6.5180,5.9988,-3.4300,1.4700,6.0200,999.2388,3.9410,6.6860,5.9947,1590579836,N
86,2046173,3.8285,6.4199,6.2046,-3.7100,-1.4700,2.8000,999.2377,3.9505,6.6127,6.0693,1590579837,N
86,2046924,3.6036,6.2213,6.2453,1.9600,0.6300,10.4300,999.2366,3.9562,6.5325,6.1518,1590579837,N
86,2048573,4.1372,6.1089,6.0491,-1.4000,-1.4000,-1.1200,999.2352,4.0171,6.4814,6.1664,1590579837,N
86,2049968,4.1109,6.3075,6.2357,-3.6400,0.0700,0.9100,999.2333,4.0437,6.4248,6.2081,1590579837,N
86,2051884,3.8596,6.3386,6.2907,-3.3600,-0.3500,-1.1200,999.2328,4.0094,6.4046,6.2511,1590579837,N
86,2052788,4.0415,6.2812,6.2405,0.5600,-1.9600,-1.8200,999.2322,4.0224,6.4047,6.2427,1590579837,N
87,2048078,4.1037,6.2501,6.2524,-7.9800,-2.1700,4.3400,999.2321,4.0781,6.3165,6.2961,1590579837,N
86,2046116,3.9745,6.0491,6.3769,2.1700,1.4000,-1.2600,999.2311,4.0574,6.3002,6.3257,1590579837,N
87,2048874,4.0510,6.2070,6.3123,3.9900,-0.7700,-2.7300,999.2305,4.0519,6.3287,6.3008,1590579837,N
87,2051074,4.1611,6.0682,6.3625,-1.6100,-0.0700,-2.8000,999.2300,4.0669,6.2908,6.3290,1590579837,N
87,2053341,4.0032,6.2261,6.2453,-2.1000,-0.2100,0.3500,999.2290,4.0671,6.2798,6.3398,1590579838,N
87,2055769,4.0128,5.5322,6.4152,-2.4500,-4.2700,2.5200,999.2285,4.1316,6.1616,6.4136,1590579838,N
87,2055788,4.1994,5.9127,6.3745,0.9100,0.7000,0.8400,999.2277,4.1592,6.1305,6.4256,1590579838,N
87,2053192,4.0032,6.2955,6.3721,5.1800,4.3400,-3.1500,999.2277,4.0894,6.2022,6.4016,1590579838,N
87,2053105,4.1133,6.1687,6.4032,5.5300,4.0600,-3.1500,999.2277,4.0583,6.2383,6.3863,1590579838,N
87,2054769,3.9338,6.2907,6.2836,-1.7500,-0.2800,0.0700,999.2276,4.0419,6.2494,6.3858,1590579838,N
87,2056173,4.0056,6.1998,6.3817,-7.2100,-0.5600,-0.9100,999.2277,4.0364,6.2082,6.4293,1590579838,N
87,2057759,3.9960,6.0921,6.3793,4.6200,0.7000,-1.4700,999.2281,4.0278,6.2339,6.4098,1590579838,N
87,2060043,3.9721,6.1998,6.4176,-0.7000,0.2800,-0.3500,999.2281,4.0165,6.2292,6.4214,1590579838,N
87,2058701,3.8668,6.1017,6.4511,-2.2400,-1.6100,1.1200,999.2281,4.0103,6.2032,6.4504,1590579838,N
87,2056373,4.0487,6.1543,6.2333,1.1900,-1.9600,1.1200,999.2284,4.0473,6.2186,6.4124,1590579839,N
87,2057179,4.0080,6.3984,6.3051,4.7600,-3.7800,-1.9600,999.2277,4.0471,6.2946,6.3380,1590579839,N
87,2058647,3.7424,6.2596,6.3290,-8.5400,2.4500,3.7100,999.2269,4.0034,6.2347,6.4242,1590579839,N
87,2059328,3.9721,6.1591,6.1783,-1.6100,-1.1200,0.9800,999.2264,4.0263,6.2357,6.4090,1590579839,N
87,2061152,4.0510,6.2405,6.2668,-0.7000,0.3500,-0.2800,999.2255,4.0346,6.2436,6.3961,1590579839,N
87,2063101,4.0558,6.3482,6.2429,3.6400,2.1700,-2.2400,999.2246,4.0184,6.2966,6.3542,1590579839,N
87,2059770,3.9075,6.0347,6.0538,0.8400,-1.0500,-1.8200,999.2242,4.0262,6.3122,6.3337,1590579839,N
87,2054348,4.1731,6.0802,6.1974,-2.9400,-2.4500,0.4900,999.2236,4.0858,6.2721,6.3354,1590579839,N
87,2054546,3.9266,6.2524,6.2572,0.1400,-1.2600,-2.0300,999.2234,4.0604,6.2976,6.3264,1590579839,N
87,2057044,3.9051,5.6614,4.3143,17.9900,3.5000,-9.9400,999.2234,4.0638,6.5356,6.0779,1590579839,N
87,2060354,3.4624,7.5685,5.7045,38.5000,-10.2900,-37.1000,999.2235,3.7471,7.1148,5.6133,1590579840,N
87,2065132,3.9123,7.3962,5.6590,-1.7500,-12.1800,-10.3600,999.2234,3.7516,7.1849,5.5202,1590579840,N
87,2068452,3.3188,7.5230,4.9890,-2.8700,-6.4400,-5.7400,999.2230,3.6759,7.3044,5.4134,1590579840,N
87,2068633,3.7759,7.3579,5.4293,-5.4600,-1.4000,3.6400,999.2232,3.7225,7.2564,5.4459,1590579840,N
87,2068903,3.4744,7.4010,5.4221,-4.9000,-0.1400,1.2600,999.2236,3.6848,7.2531,5.4759,1590579840,N
87,2070398,3.4481,7.2670,5.5083,-6.2300,-3.8500,2.2400,999.2242,3.6769,7.2252,5.5180,1590579840,N
87,2071578,3.9027,6.8507,5.7643,-6.3000,0.9100,-0.1400,999.2251,3.7271,7.1213,5.6184,1590579840,N
87,2072694,3.4146,6.7358,5.4987,-0.2100,2.6600,-4.9700,999.2255,3.6579,7.1323,5.6498,1590579840,N
87,2073845,3.5127,7.0971,5.6614,0.7700,-1.8200,-4.6200,999.2250,3.6144,7.1661,5.6351,1590579840,N
87,2074672,3.6203,7.1019,5.6782,-3.3600,-4.0600,-1.0500,999.2249,3.6315,7.1485,5.6464,1590579840,N
87,2072467,3.6969,7.2024,5.8409,-8.1900,-1.1900,1.6100,999.2253,3.6522,7.0824,5.7159,1590579841,N
87,2071621,3.3787,7.0229,5.6231,-4.2700,-1.4000,-1.3300,999.2266,3.6125,7.0849,5.7380,1590579841,N
87,2072176,3.7161,6.9224,5.8744,-2.8700,-2.1700,1.6800,999.2277,3.6548,7.0307,5.7778,1590579841,N
87,2072841,3.5844,6.8650,5.8122,-1.1900,-0.6300,-0.8400,999.2283,3.6489,7.0138,5.8019,1590579841,N
87,2073697,3.6467,6.9248,5.8337,-0.1400,-0.1400,0.1400,999.2289,3.6535,7.0012,5.8143,1590579841,N
87,2074856,3.6299,6.8459,5.9414,-2.4500,-1.1900,1.4000,999.2291,3.6671,6.9574,5.8582,1590579841,N
87,2074142,3.6706,6.8794,5.8193,-1.0500,-1.1900,-0.0700,999.2292,3.6793,6.9489,5.8605,1590579841,N
87,2070860,3.6658,6.8435,5.8792,-0.6300,-0.7000,0.3500,999.2294,3.6874,6.9332,5.8740,1590579841,N
87,2069644,3.6754,6.9057,5.9318,-0.3500,-1.1200,0.7700,999.2297,3.6939,6.9221,5.8830,1590579841,N
87,2070779,3.6826,6.8483,5.8768,-0.7000,-0.0700,0.0700,999.2302,3.6973,6.9116,5.8932,1590579841,N
87,2071897,3.6730,6.8554,5.9151,-0.7000,-0.7000,0.2100,999.2306,3.6999,6.9015,5.9035,1590579842,N
87,2073200,3.6203,6.9200,6.0108,1.7500,0.7000,-1.8200,999.2310,3.6661,6.9165,5.9069,1590579842,N
87,2074572,3.6419,6.9176,5.8935,0.4200,0.7000,-1.6800,999.2318,3.6496,6.9287,5.9029,1590579842,N
87,2071384,3.6730,6.8387,5.8935,-0.1400,-0.4900,0.3500,999.2325,3.6632,6.9174,5.9077,1590579842,N
87,2068096,3.6251,6.7549,5.8863,-0.5600,-0.7000,0.4900,999.2327,3.6725,6.9002,5.9221,1590579842,N
87,2068551,3.7256,6.7908,5.9222,-0.0700,-1.1900,0.0700,999.2324,3.6935,6.8873,5.9240,1590579842,N
87,2069859,3.6371,6.8243,5.9438,0.8400,-0.1400,-0.3500,999.2321,3.6845,6.8889,5.9277,1590579842,N
87,2071338,3.6610,6.8937,5.9007,0.1400,0.4900,-0.7000,999.2324,3.6752,6.8965,5.9247,1590579842,N
87,2072985,3.6371,6.9775,5.9653,2.0300,1.4000,-2.5200,999.2329,3.6410,6.9250,5.9125,1590579842,N
87,2073554,3.7376,6.8172,5.7978,0.3500,0.4200,-0.2800,999.2334,3.6650,6.9215,5.9018,1590579843,N
87,2069585,3.6706,6.8865,5.9294,-0.2100,-0.4200,0.2100,999.2345,3.6698,6.9138,5.9079,1590579843,N
88,2067708,3.6491,6.9511,5.9797,0.9800,-0.7700,-1.2600,999.2357,3.6571,6.9256,5.9018,1590579843,N
87,2068672,3.6036,6.8961,5.8624,0.3500,1.4000,-2.0300,999.2360,3.6331,6.9387,5.9013,1590579843,N
87,2069691,3.5964,6.9153,5.9438,0.7700,-1.1900,0.6300,999.2364,3.6348,6.9378,5.9013,1590579843,N
88,2071262,3.6227,6.8172,5.9581,-0.2800,-0.2100,-0.2100,999.2363,3.6365,6.9212,5.9197,1590579843,N
87,2072861,3.6562,6.8004,5.8983,-1.1200,-1.3300,0.9100,999.2357,3.6591,6.9010,5.9294,1590579843,N
88,2072586,3.6538,6.8291,5.9127,0.3500,-0.3500,0.4900,999.2360,3.6670,6.8955,5.9309,1590579843,N
88,2068969,3.6275,6.8387,5.8217,1.4000,-0.0700,-1.1200,999.2366,3.6616,6.9148,5.9118,1590579843,N
88,2068373,3.6802,6.9272,5.8600,0.4900,-1.8900,0.4200,999.2368,3.6774,6.9232,5.8921,1590579843,N
88,2069653,3.6706,6.8387,5.9127,-0.7700,-1.8200,0.6300,999.2375,3.6922,6.9086,5.9000,1590579844,N
88,2071012,3.7567,6.8100,5.9055,-0.7700,-0.9100,0.2800,999.2380,3.7145,6.8903,5.9074,1590579844,N
88,2072774,3.6586,6.8172,5.9222,-1.2600,0.7700,0.4200,999.2390,3.7074,6.8741,5.9306,1590579844,N
88,2074739,3.6969,6.8507,5.8911,-0.2100,-0.5600,-0.2800,999.2390,3.7098,6.8767,5.9260,1590579844,N
88,2073351,3.6323,6.7478,5.8600,-0.9800,-0.6300,0.6300,999.2386,3.7132,6.8656,5.9368,1590579844,N
88,2070379,3.8429,6.8124,5.9366,-1.8900,-2.8700,1.2600,999.2393,3.7596,6.8407,5.9364,1590579844,N
88,2070631,3.8524,6.7478,5.8696,-4.4100,-1.1900,-0.3500,999.2397,3.7892,6.8102,5.9526,1590579844,N
88,2071891,3.9362,6.6353,5.8265,-3.7800,-0.1400,-0.6300,999.2401,3.8286,6.7763,5.9660,1590579844,N
88,2073275,4.3071,6.2716,5.7260,-17.5700,-7.3500,9.3800,999.2401,4.0429,6.5779,6.0463,1590579844,N
88,2075898,4.0415,6.6018,6.3601,-8.1900,2.8000,3.5000,999.2402,4.0326,6.4866,6.1508,1590579844,N
88,2078503,3.9314,6.4247,6.1519,-0.9100,5.1100,-2.4500,999.2411,3.9805,6.4843,6.1870,1590579845,N
88,2077969,3.6299,6.6903,6.0610,-5.0400,1.1900,-0.5600,999.2414,3.9082,6.5081,6.2081,1590579845,N
88,2078269,4.0941,6.2596,6.2883,-5.9500,5.8800,-3.6400,999.2410,3.9007,6.4363,6.2872,1590579845,N
88,2080756,3.9123,5.9916,6.4247,-3.8500,7.3500,-4.7600,999.2404,3.8578,6.3590,6.3915,1590579845,N
88,2083414,3.0724,6.2859,6.6544,5.0400,10.1500,-13.4400,999.2398,3.5891,6.4471,6.4593,1590579845,N
88,2085780,2.5364,6.9272,6.5683,2.9400,4.5500,-17.1500,999.2388,3.2620,6.6336,6.4441,1590579845,N
88,2087074,2.4766,7.7073,7.0588,1.8900,-3.6400,-1.6100,999.2379,3.0695,6.7491,6.4186,1590579845,N
88,2088232,1.8927,7.2383,6.4463,-3.9900,-15.3300,11.6900,999.2381,2.9658,6.8004,6.4132,1590579845,N
88,2087666,3.0939,7.1091,6.5420,-11.5500,-24.2900,21.4900,999.2382,3.2039,6.6949,6.4096,1590579845,N
88,2087292,4.2090,5.9844,6.3601,-17.4300,-18.9000,25.9700,999.2379,3.6449,6.3729,6.5016,1590579845,N
88,2087348,5.3264,5.0489,5.9031,-9.9400,-8.9600,22.9600,999.2368,4.1822,6.0120,6.5219,1590579846,N
88,2087187,5.9821,4.6828,5.9318,-10.3600,-5.4600,10.5000,999.2358,4.6378,5.6809,6.5107,1590579846,N
88,2087529,5.5274,5.0656,6.3338,-2.1700,4.4100,-5.5300,999.2350,4.7617,5.5705,6.5166,1590579846,N
88,2088854,5.0512,5.3169,6.3434,7.9100,10.0100,-15.9600,999.2336,4.7008,5.6449,6.4967,1590579846,N
88,2089352,4.4913,5.5394,6.4726,8.1900,15.5400,-20.1600,999.2330,4.4940,5.7700,6.5332,1590579846,N
88,2088434,3.6060,6.0945,6.4630,15.4000,18.6200,-22.4700,999.2326,4.1250,6.0371,6.5352,1590579846,N
88,2089477,2.5388,7.2503,6.7717,13.2300,11.7600,-14.3500,999.2329,3.6533,6.3536,6.5158,1590579846,N
88,2091172,2.0554,7.4417,6.6401,0.1400,-2.9400,2.0300,999.2335,3.3428,6.5200,6.5181,1590579846,N
88,2092090,3.1825,7.0804,6.7765,-11.1300,-12.1800,17.1500,999.2342,3.4288,6.4398,6.5530,1590579846,N
88,2092540,3.4313,6.4152,6.5827,-23.1000,-19.3200,22.1900,999.2350,3.6379,6.2275,6.6449,1590579846,N
88,2092727,4.0295,5.5609,6.4295,-24.4300,-23.3100,26.3200,999.2361,3.9982,5.9102,6.7271,1590579846,N
89,2089294,5.5920,4.7521,6.3147,-18.3400,-15.1900,21.0700,999.2363,4.5049,5.5166,6.7412,1590579847,N
89,2083932,6.0754,4.1492,6.4415,3.8500,2.6600,8.5400,999.2362,4.8505,5.2368,6.7245,1590579847,N
89,2082070,5.4317,4.8191,6.4271,21.3500,8.3300,-7.6300,999.2365,4.9113,5.3206,6.6137,1590579847,N
89,2084604,5.1446,5.3384,6.5707,3.0800,4.5500,-10.5000,999.2368,4.8733,5.3771,6.5961,1590579847,N
89,2086880,3.5294,5.6782,7.2096,1.1900,2.9400,-15.0500,999.2374,4.5128,5.5266,6.7277,1590579847,N
89,2088398,4.3167,6.1137,6.5587,1.8200,2.8700,-15.0500,999.2380,4.3760,5.7044,6.6694,1590579847,N
89,2089663,3.8548,6.1400,6.4726,5.1800,5.4600,-9.9400,999.2386,4.2036,5.8733,6.6336,1590579847,N
89,2089017,3.9290,6.4199,6.5420,4.2700,5.2500,-1.9600,999.2394,4.1001,5.9878,6.5959,1590579847,N
89,2089078,3.7376,6.1400,6.4008,3.7800,6.2300,2.6600,999.2404,4.0224,6.0405,6.5957,1590579847,N
89,2090285,3.9601,4.7450,6.7932,-6.5100,0.2100,-15.4000,999.2418,3.9970,5.8796,6.7546,1590579848,N
89,2092258,4.0463,6.0802,6.3314,-7.6300,0.1400,3.0800,999.2432,4.0312,5.8768,6.7367,1590579848,N
89,2093565,4.2736,6.1113,6.3027,-1.8900,0.9800,3.8500,999.2445,4.0976,5.8999,6.6762,1590579848,N
89,2094622,4.2999,6.0562,6.4822,0.3500,-0.9800,0.3500,999.2455,4.1411,5.9278,6.6243,1590579848,N
89,2095601,4.0247,6.0706,6.3123,4.3400,-1.0500,-0.2800,999.2460,4.1383,6.0071,6.5544,1590579848,N
89,2094560,4.4076,6.3673,6.5180,4.4800,0.0700,-0.9100,999.2471,4.1614,6.0714,6.4801,1590579848,N
89,2094479,3.8501,5.2881,6.3697,1.3300,-0.8400,3.6400,999.2477,4.1814,5.9859,6.5464,1590579848,N
89,2096125,3.7161,6.0586,6.2070,-13.3700,1.6100,5.4600,999.2484,4.1322,5.9385,6.6204,1590579848,N
89,2096597,4.3813,6.0060,6.5515,0.0700,1.6100,-1.6100,999.2481,4.1563,5.9456,6.5989,1590579848,N
89,2097329,4.1396,5.8816,6.4319,1.7500,2.3800,-2.3800,999.2481,4.1425,5.9701,6.5854,1590579848,N
89,2097676,4.0343,6.0730,6.5324,-0.1400,1.6800,-1.4000,999.2472,4.1063,5.9959,6.5847,1590579848,N
89,2097762,3.9840,6.1543,6.6138,0.4200,1.4000,-2.1000,999.2465,4.0586,6.0294,6.5836,1590579849,N
89,2095834,3.9003,6.0945,6.4822,-1.8200,-0.7000,-1.3300,999.2454,4.0312,6.0507,6.5810,1590579849,N
89,2095889,3.9553,6.0419,6.5492,-1.8200,-0.4900,-0.2100,999.2442,4.0218,6.0470,6.5901,1590579849,N
89,2096738,4.0654,6.1328,6.6138,3.8500,-0.6300,-1.7500,999.2436,4.0191,6.0862,6.5555,1590579849,N
89,2097553,4.0128,6.0754,6.4247,2.6600,-0.7000,-4.4800,999.2426,4.0078,6.1351,6.5168,1590579849,N
89,2098330,4.0630,5.9629,6.3697,-0.2100,0.6300,-0.3500,999.2415,4.0290,6.1226,6.5154,1590579849,N
89,2098863,3.8501,6.2644,6.4941,0.7700,-0.5600,0.1400,999.2413,3.9968,6.1556,6.5042,1590579849,N
89,2097717,3.9410,6.2189,6.4511,0.7700,0.4900,0.2800,999.2404,3.9860,6.1729,6.4944,1590579849,N
89,2096501,3.8213,6.1783,6.4654,-0.0700,-0.5600,-0.3500,999.2395,3.9607,6.1868,6.4967,1590579849,N
89,2097041,4.0869,6.0347,6.4367,-5.4600,-0.8400,-2.4500,999.2388,3.9842,6.1473,6.5198,1590579850,N
89,2097533,3.9577,6.1089,6.5300,-0.9800,0.5600,-1.4000,999.2379,3.9711,6.1430,6.5318,1590579850,N
89,2098440,3.7280,6.1113,6.5659,-3.0100,1.2600,-1.1900,999.2372,3.9163,6.1341,6.5731,1590579850,N
89,2099020,3.8812,6.0491,6.6233,-2.7300,0.1400,-1.4700,999.2363,3.9034,6.1115,6.6018,1590579850,N
89,2099332,3.8788,6.0897,6.6329,0.2100,0.6300,-1.0500,999.2358,3.8902,6.1126,6.6085,1590579850,N
89,2097895,3.7950,6.0921,6.6425,-8.5400,1.1900,-8.6800,999.2362,3.8223,6.0996,6.6599,1590579850,N
89,2097243,3.8166,5.5274,6.5420,-3.2200,-0.7700,0.7000,999.2368,3.8640,6.0138,6.7137,1590579850,N
89,2098346,3.6203,5.9964,6.4271,7.1400,0.7000,-1.8200,999.2379,3.8275,6.0997,6.6569,1590579850,N
89,2098780,3.7926,6.1831,6.6688,-4.8300,0.0700,1.9600,999.2382,3.8249,6.0713,6.6843,1590579850,N
89,2099149,3.9147,6.1089,6.6209,-0.5600,-0.0700,0.1400,999.2385,3.8425,6.0730,6.6727,1590579850,N
89,2099837,3.7831,6.1615,6.4893,0.2800,-0.7700,-0.3500,999.2389,3.8404,6.1073,6.6424,1590579850,N
89,2099997,3.8285,6.1328,6.5970,-0.1400,-0.3500,0.4900,999.2384,3.8438,6.1123,6.6359,1590579851,N
89,2097863,3.7328,6.1161,6.5348,-0.0700,0.2100,-1.0500,999.2381,3.8237,6.1311,6.6301,1590579851,N
89,2097535,3.7687,6.0921,6.5898,0.0700,0.7700,-0.7000,999.2383,3.8108,6.1348,6.6342,1590579851,N
89,2098275,3.8022,6.1735,6.5707,-0.6300,-0.2100,-0.7000,999.2387,3.8084,6.1453,6.6259,1590579851,N
89,2098732,3.8046,6.1352,6.5803,-0.4200,0.2800,-0.2800,999.2386,3.8077,6.1463,6.6253,1590579851,N
89,2099409,3.8357,6.1376,6.6281,0.1400,0.2800,-0.2800,999.2390,3.8098,6.1453,6.6250,1590579851,N
89,2100179,3.7902,6.1017,6.6377,0.7000,0.2800,0.0700,999.2393,3.8070,6.1432,6.6286,1590579851,N
89,2098987,3.6562,6.1448,6.5587,0.5600,-0.0700,1.4000,999.2398,3.7920,6.1535,6.6276,1590579851,N
89,2097644,3.7687,6.2022,6.5444,-0.2100,-0.1400,0.6300,999.2401,3.7939,6.1636,6.6172,1590579852,N
89,2097895,3.7591,6.1448,6.5922,-2.6600,0.7700,1.1900,999.2400,3.7913,6.1415,6.6391,1590579852,N
89,2098898,3.7831,6.1256,6.6473,2.1700,-2.6600,0.9800,999.2396,3.8098,6.1532,6.6177,1590579852,N
89,2100063,3.8118,5.9964,6.5587,-10.5700,1.6100,2.8000,999.2394,3.8233,6.0573,6.6980,1590579852,N
89,2100427,4.0510,5.9749,6.6209,4.9700,-1.4700,0.4900,999.2393,3.8815,6.0735,6.6496,1590579852,N
89,2101111,3.8620,6.1735,6.5994,3.1500,-0.2800,-1.8200,999.2383,3.8694,6.1195,6.6144,1590579852,N
89,2099580,3.7591,6.1783,6.5157,1.0500,-0.2800,-1.8200,999.2385,3.8457,6.1562,6.5941,1590579852,N
89,2098955,3.7280,6.0682,6.5659,0.7000,0.4200,1.0500,999.2383,3.8345,6.1520,6.6045,1590579852,N
89,2099395,3.7567,6.0634,6.6018,0.1400,-0.9100,1.3300,999.2374,3.8372,6.1415,6.6127,1590579852,N
89,2100027,3.9003,6.0730,6.5204,2.1000,-0.9800,0.4900,999.2378,3.8643,6.1502,6.5888,1590579852,N
89,2100820,3.9649,6.1974,6.6018,2.5900,-0.1400,0.2100,999.2377,3.8805,6.1648,6.5656,1590579852,N
89,2101273,3.7543,6.2261,6.5372,0.2100,-0.6300,-1.3300,999.2383,3.8543,6.1898,6.5575,1590579853,N
89,2101749,3.5749,5.7595,6.5396,-7.1400,0.1400,0.2800,999.2382,3.8275,6.1068,6.6504,1590579853,N
89,2099569,3.8931,6.0251,6.6066,2.8000,-2.2400,-1.3300,999.2388,3.8512,6.1252,6.6197,1590579853,N
89,2099368,3.8046,6.0634,6.5731,1.2600,-0.6300,-0.7000,999.2397,3.8490,6.1362,6.6108,1590579853,N
89,2100086,3.7902,6.2142,6.6162,-0.4900,-0.2100,0.2800,999.2404,3.8373,6.1441,6.6102,1590579853,N
89,2100600,3.7615,6.2094,6.5587,-2.5900,0.4900,1.2600,999.2410,3.8270,6.1372,6.6226,1590579853,N
89,2101311,3.7352,6.1089,6.6305,-0.9100,0.2100,1.4700,999.2415,3.8182,6.1245,6.6394,1590579853,N
89,2101908,3.7974,6.0897,6.5874,-0.0700,-1.0500,0.8400,999.2408,3.8288,6.1233,6.6344,1590579853,N
89,2101568,3.9027,6.1352,6.5157,0.7000,0.6300,-0.6300,999.2401,3.8408,6.1374,6.6145,1590579853,N
89,2099657,3.7615,6.1137,6.5922,0.3500,0.9100,-0.7700,999.2388,3.8210,6.1443,6.6195,1590579853,N
89,2099637,3.7807,6.1759,6.6018,1.5400,-0.9100,1.9600,999.2386,3.8284,6.1533,6.6068,1590579853,N
89,2100512,3.8907,6.2381,6.5204,4.0600,-0.0700,-2.9400,999.2388,3.8259,6.2069,6.5580,1590579854,N
88,2101077,3.7448,6.1567,6.5539,-2.3800,0.2100,-0.4200,999.2393,3.8111,6.1924,6.5802,1590579854,N
89,2101676,3.7878,6.0826,6.6497,-2.7300,-0.4900,1.6800,999.2394,3.8194,6.1506,6.6146,1590579854,N
89,2102303,3.8931,6.1113,6.5707,0.3500,-0.6300,-0.9800,999.2387,3.8347,6.1540,6.6025,1590579854,N
89,2100836,3.9051,6.7358,6.5779,11.4800,-2.1700,3.4300,999.2384,3.8507,6.2764,6.4768,1590579854,N
89,2100069,3.7998,6.1472,6.5515,5.4600,-1.6100,-0.4200,999.2378,3.8517,6.2951,6.4580,1590579854,N
88,2100629,3.8477,6.0658,6.4176,-6.0200,0.7700,-1.3300,999.2377,3.8534,6.2401,6.5102,1590579854,N
89,2100996,3.8788,6.1352,6.5611,-3.0800,-0.6300,-2.3800,999.2379,3.8513,6.2161,6.5343,1590579854,N
89,2101674,3.9529,6.1065,6.5085,-1.3300,-0.7700,-0.4200,999.2382,3.8771,6.1954,6.5388,1590579855,N
89,2102334,3.8740,6.0443,6.5563,-3.3600,1.0500,-1.5400,999.2383,3.8695,6.1607,6.5759,1590579855,N
89,2102896,3.7041,5.9988,6.8578,15.4000,-2.9400,5.1800,999.2385,3.8795,6.2001,6.5329,1590579855,N
89,2101529,3.8907,6.0323,6.6832,7.7700,-2.1000,0.9100,999.2390,3.8991,6.2130,6.5089,1590579855,N
89,2101169,3.7639,6.3338,6.5013,7.2800,-0.5600,-6.7200,999.2391,3.8405,6.3120,6.4482,1590579855,N
89,2101627,3.7137,6.3482,6.4199,4.9700,-0.7000,-3.1500,999.2390,3.8063,6.3714,6.4100,1590579855,N
89,2102284,3.7089,6.1017,6.3984,4.1300,-0.7000,-2.7300,999.2396,3.7938,6.3848,6.4040,1590579855,N
89,2103053,3.4911,7.5709,6.5348,-8.1900,5.2500,-1.8200,999.2396,3.6488,6.4595,6.4134,1590579855,N
89,2103727,4.0869,5.7236,6.4989,-10.9200,4.5500,-8.9600,999.2397,3.6886,6.3090,6.5391,1590579855,N
89,2103840,2.4646,6.4798,6.4941,6.5800,-7.1400,6.3700,999.2397,3.5273,6.4182,6.5219,1590579855,N
89,2102158,3.7663,6.0227,6.4917,-8.1900,-3.2900,1.7500,999.2395,3.6151,6.3107,6.5785,1590579855,N
