0,2350863,2.0961,-1.9980,9.2315,-11.6200,-13.1600,-3.3600,999.1062,2.1246,-2.0252,9.3571,1590579425,N
0,2379959,2.2947,-2.0004,9.3009,-15.8200,-3.4300,-6.4400,999.1028,2.2686,-2.1555,9.2940,1590579425,N
0,2379913,2.5651,-1.8927,9.6574,-28.7700,7.0700,5.6000,999.1003,2.3615,-2.3169,9.2318,1590579425,N
0,2377923,1.8640,-2.9192,9.4158,1.1200,-33.2500,-20.0900,999.0983,2.5694,-2.4847,9.1321,1590579425,N
0,58707,2.5699,-2.4933,8.6812,14.9100,-35.7700,-20.3700,999.0961,2.8777,-2.4563,9.0474,1590579425,N
0,2147483647,3.9817,-1.2371,9.0329,12.7400,-22.5400,-15.8200,999.0941,3.2335,-2.1291,9.0101,1590579426,N
0,2147483647,3.6036,-2.5531,9.1502,-14.4900,-6.2300,-17.2200,999.0930,3.4568,-2.2834,8.8886,1590579426,N
0,1088995,3.7950,-2.0626,8.8439,18.4100,-10.1500,-17.5700,999.0919,3.5569,-2.0713,8.9010,1590579426,N
0,1117581,4.2544,-1.2682,8.7338,-7.0000,-15.1200,-45.0800,999.0909,4.0207,-1.8768,8.7454,1590579426,N
0,1737416,4.4794,-0.8207,8.5831,-10.5000,-6.1600,-21.8400,999.0914,4.3600,-1.6952,8.6190,1590579426,N
0,1831633,4.7282,-1.4333,8.8032,-9.3800,-16.1700,-13.3700,999.0911,4.6912,-1.6786,8.4466,1590579426,N
0,1832070,4.7234,-1.3902,8.5424,-17.8500,-9.0300,-6.5800,999.0912,4.9542,-1.7273,8.2851,1590579426,N
0,2178990,4.8550,-2.3067,8.3462,-76.3700,-24.3600,1.4700,999.0910,5.5467,-2.3325,7.7437,1590579426,N
0,2182004,5.3719,-3.9888,7.5805,-33.7400,-22.1200,10.8500,999.0908,5.6955,-2.8802,7.4455,1590579426,N
0,2179263,5.4532,-3.0748,7.5757,-22.5400,-18.5500,22.4000,999.0901,5.7259,-3.1526,7.3106,1590579426,N
0,2177676,5.6662,-4.9196,7.2407,-75.8800,-26.5300,47.3900,999.0892,5.7678,-4.0985,6.7900,1590579427,N
0,2235231,5.2762,-5.7858,6.1232,-71.1900,-11.8300,-7.3500,999.0891,5.8676,-4.7688,6.2450,1590579427,N
0,2234212,5.9916,-5.9964,5.0441,-7.4900,-0.7000,-40.4600,999.0893,6.1257,-4.8363,5.9377,1590579427,N
0,2230791,6.0562,-4.3813,5.3504,20.5800,1.1900,-20.8600,999.0889,6.2778,-4.5870,5.9766,1590579427,N
0,2226897,6.1137,-4.6421,6.1065,11.9000,6.6500,-2.1700,999.0890,6.2072,-4.5272,6.0947,1590579427,N
0,2228262,6.3984,-4.6445,5.8313,84.9100,30.1700,18.7600,999.0895,5.8645,-4.1910,6.6493,1590579427,N
0,2235018,4.9938,-4.3023,7.2215,94.5700,45.0100,13.7900,999.0900,5.1385,-3.6786,7.4990,1590579427,N
0,2238306,4.2257,-2.7494,8.2696,104.7900,25.4100,30.9400,999.0905,4.3462,-2.8506,8.3160,1590579427,N
0,2248784,4.3956,-2.2804,8.6596,73.1500,24.5700,3.2900,999.0912,3.8118,-2.1125,8.7851,1590579427,N
0,2256596,3.0676,-0.4403,8.8654,24.0100,15.0500,19.8800,999.0914,3.3675,-1.5456,9.0797,1590579427,N
0,2261908,0.8614,1.1605,9.9470,-26.6000,21.8400,-22.1200,999.0907,3.2057,-0.9359,9.2205,1590579428,N
0,2268411,4.2377,0.2967,9.6072,6.6500,9.6600,29.0500,999.0898,2.9552,-0.6885,9.3254,1590579428,N
0,2274238,2.7302,-0.1771,9.3488,41.7900,12.6700,21.4900,999.0887,5.7596,-0.7333,7.9031,1590579428,N
0,2277272,2.6130,-0.5336,9.7292,-7.8400,17.2200,8.8200,999.0866,2.0557,-0.3532,9.5823,1590579428,N
0,2280540,2.1679,-0.3087,9.4086,-62.2300,2.8700,4.2000,999.0842,3.0422,-0.8729,9.2819,1590579428,N
0,2282316,2.8355,-0.2943,9.2698,12.2500,-8.6800,7.1400,999.0821,2.8673,-0.6771,9.3536,1590579428,N
0,2285603,2.1248,-0.9045,9.4780,24.9200,7.0700,43.4700,999.0800,2.1358,-0.5649,9.5546,1590579428,N
0,2294864,1.9884,-1.5649,10.1432,11.5500,-8.4000,31.0100,999.0776,2.0394,-0.7082,9.5661,1590579428,N
0,2309952,2.6082,0.1555,8.7936,53.2000,-19.2500,32.4100,999.0759,5.7795,-1.0071,7.8584,1590579428,N
0,2318232,2.5364,-1.5864,9.4899,-36.6800,20.5800,12.8800,999.0747,2.0456,-0.7330,9.5629,1590579428,N
0,2322803,2.0770,-0.8423,9.6024,2.1700,5.1800,-6.1600,999.0734,1.9867,-0.7154,9.5766,1590579429,N
0,2328314,2.1224,-0.7107,9.6431,2.1700,4.4800,-5.6000,999.0720,1.9473,-0.6774,9.5875,1590579429,N
0,2332593,2.0219,-0.7609,9.6742,-0.4200,5.7400,-7.1400,999.0706,1.9232,-0.6776,9.5923,1590579429,N
0,2336768,1.8592,-0.7178,9.8608,7.2800,0.1400,-7.4200,999.0696,1.8326,-0.6091,9.6146,1590579429,N
0,2340355,1.9980,-0.5503,9.6263,-0.1400,2.8700,-2.5200,999.0680,1.8373,-0.5905,9.6149,1590579429,N
0,2342037,1.8209,-0.5695,9.7795,2.3100,2.9400,-3.2900,999.0673,1.7785,-0.5558,9.6280,1590579429,N
0,2344627,1.8520,-0.3470,9.6694,0.2100,-4.3400,1.4000,999.0666,1.8164,-0.5179,9.6230,1590579429,N
0,2347491,1.8951,-0.4810,9.6455,1.5400,0.9100,1.6100,999.0659,1.7929,-0.4967,9.6286,1590579429,N
0,2350299,1.9406,-0.5408,9.6957,1.4000,2.3800,-2.7300,999.0651,1.7823,-0.4864,9.6310,1590579429,N
0,2352799,1.8162,-0.4499,9.7484,1.6800,1.8200,-1.4700,999.0647,1.7445,-0.4592,9.6393,1590579429,N
0,2354979,1.9143,-0.5432,9.6814,0.6300,1.8200,-1.8200,999.0632,1.7548,-0.4657,9.6371,1590579430,N
0,2355335,1.8520,-0.4762,9.6622,0.4900,4.2000,0.7700,999.0623,1.7240,-0.4587,9.6430,1590579430,N
0,2356101,1.5434,-0.8518,9.7173,1.0500,6.0200,-2.0300,999.0623,1.6261,-0.5178,9.6570,1590579430,N
0,2357857,1.3663,-0.2608,9.9446,21.3500,-8.5400,-15.0500,999.0621,1.3478,-0.2696,9.7098,1590579430,N
0,2359840,1.7707,-0.4786,9.8513,28.2800,-14.4200,-34.1600,999.0623,4.2178,-0.3992,8.8443,1590579430,N
0,2359986,2.3426,1.3161,9.1956,21.5600,-6.2300,-36.7500,999.0626,6.3481,0.1828,7.4725,1590579430,N
0,2359551,1.7755,1.7659,9.3894,7.4900,3.5700,-17.0800,999.0629,3.2245,0.7305,9.2325,1590579430,N
0,2358861,1.9143,1.4955,9.5306,-0.7000,3.0100,-0.2100,999.0635,2.6209,0.8751,9.4093,1590579430,N
0,2357401,1.7348,1.0457,9.6670,-2.6600,-1.4000,-0.0700,999.0642,2.3280,0.8910,9.4846,1590579430,N
0,2357811,1.9358,0.9978,9.6646,-1.7500,1.7500,0.0700,999.0649,2.1832,0.8925,9.5188,1590579430,N
0,2358568,1.8473,1.1916,9.6646,-0.7000,0.2800,-0.7700,999.0651,2.0769,0.9425,9.5378,1590579431,N
0,2359762,1.8233,0.9811,9.6287,-2.3100,4.5500,-1.5400,999.0654,1.9499,0.9227,9.5664,1590579431,N
0,2361283,1.3735,1.0887,10.1025,3.1500,-2.1700,-0.4900,999.0656,1.8450,0.9843,9.5811,1590579431,N
0,2361651,2.0459,1.1055,9.4301,13.3700,-2.1700,3.1500,999.0663,2.0265,1.1272,9.5285,1590579431,N
0,2360425,1.7324,1.0528,9.5904,-3.3600,6.3000,-1.1900,999.0677,1.8769,1.0711,9.5656,1590579431,N
0,2361758,1.6104,1.1222,9.8321,-2.2400,0.7700,-0.2100,999.0696,1.7853,1.0557,9.5848,1590579431,N
0,2363163,2.3928,1.7755,11.5047,-3.9200,-26.1800,13.3000,999.0702,2.0635,1.1146,9.5221,1590579431,N
0,2365034,5.1733,1.6510,11.8086,144.6200,-124.8100,-37.1000,999.0705,4.2361,2.7499,8.4062,1590579431,N
0,2365779,5.1948,3.4624,8.2050,54.7400,-161.4200,-9.5900,999.0707,5.6738,3.4337,7.2242,1590579431,N
0,2365282,3.7472,2.7924,3.1466,-22.4000,-222.1100,31.9200,999.0698,7.3524,3.3466,5.5599,1590579431,N
0,2358208,4.7163,2.4335,1.5242,-144.4800,-175.7000,53.0600,999.0687,8.3516,2.4920,4.4956,1590579432,N
0,2348283,7.1043,0.6245,1.7563,-98.9800,-41.3700,43.1900,999.0674,8.4493,1.6935,4.6811,1590579432,N
0,2342199,23.4401,2.1105,1.2467,-58.8700,-28.0000,-0.4200,999.0662,8.6002,1.5602,4.4466,1590579432,N
0,2340915,11.0309,2.2995,2.5675,-0.1400,8.6100,3.2200,999.0663,8.7831,1.6398,4.0420,1590579432,N
0,2337823,9.6048,0.2225,2.8499,-47.6700,-11.7600,-28.9100,999.0673,8.4715,1.3918,4.7399,1590579432,N
0,2335048,9.8560,0.1866,2.1129,-42.7700,-8.1900,-29.4000,999.0694,8.2276,1.1774,5.2048,1590579432,N
0,2328770,9.4684,0.0574,1.2802,31.9200,-12.6000,-50.5400,999.0709,8.4778,1.4034,4.7253,1590579432,N
0,2320361,9.4947,3.1920,0.5121,67.0600,-5.5300,-52.2900,999.0724,9.0682,2.3304,2.9167,1590579432,N
0,2315784,9.4588,4.0774,0.8830,2.8000,-14.0700,5.4600,999.0735,9.2461,2.4573,2.1545,1590579432,N
0,2312442,9.7675,2.2995,0.3326,-35.7000,0.4900,21.4200,999.0750,9.4233,2.1677,1.6351,1590579432,N
0,2309534,9.8321,2.0961,1.2084,-23.8000,0.1400,11.2700,999.0765,9.4825,1.9955,1.5068,1590579433,N
0,2307683,9.4899,2.9934,1.1821,-14.2100,13.7900,14.8400,999.0786,9.4735,2.0327,1.5138,1590579433,N
0,2303601,9.5402,1.4836,1.4716,-54.7400,9.9400,32.5500,999.0795,9.5449,1.6200,1.5624,1590579433,N
0,2295138,9.7196,0.5838,1.4716,-18.9000,15.2600,15.6100,999.0802,9.5766,1.3006,1.6634,1590579433,N
0,2289760,9.7340,0.8303,2.0100,-14.4900,26.1100,23.2400,999.0792,9.5756,1.0566,1.8337,1590579433,N
0,2287045,9.0688,0.0574,3.3691,12.3900,10.9200,25.2000,999.0788,9.5925,0.7087,1.9111,1590579433,N
0,2284097,9.6550,-0.1914,3.3117,22.5400,-13.3000,11.4800,999.0781,9.6411,0.4489,1.7373,1590579433,N
0,2282910,9.7699,0.2489,2.3833,56.6300,-14.9100,11.6900,999.0775,9.6881,0.3424,1.4811,1590579433,N
0,2281290,9.5785,-1.1198,1.8640,-39.9000,-18.7600,12.5300,999.0768,9.7878,-0.1349,0.5918,1590579433,N
0,2273936,9.9613,-1.1797,1.7755,26.5300,-15.0500,-10.4300,999.0756,9.7941,-0.2133,-0.4469,1590579433,N
0,2269038,10.1408,-1.9645,1.6463,46.5500,-19.5300,2.8000,999.0745,8.7275,-0.3917,4.4551,1590579434,N
0,2268326,10.1001,-0.4379,0.1938,124.8100,-12.5300,-8.5400,999.0732,9.1092,-0.3261,3.6174,1590579434,N
0,2268289,9.6144,1.6989,1.1342,143.0800,30.1700,-17.3600,999.0723,9.7453,0.2679,1.0623,1590579434,N
0,2270589,9.7890,1.3759,1.9956,-32.6200,-4.9000,3.0800,999.0724,9.7157,0.4094,1.2681,1590579434,N
0,2271406,9.8848,0.6102,1.1055,-1.4700,-5.5300,-3.9200,999.0729,9.7173,0.4742,1.2323,1590579434,N
0,2266737,10.0187,0.8853,0.1627,37.7300,6.1600,-3.8500,999.0734,9.7286,0.6669,1.0392,1590579434,N
0,2263856,9.4253,1.2778,2.0315,82.3900,2.9400,5.3200,999.0735,9.7007,0.8455,1.1627,1590579434,N
0,2266471,9.9637,0.7466,1.3663,28.7000,-14.3500,13.3700,999.0751,9.7357,0.6711,0.9676,1590579434,N
0,2271502,9.9924,0.1292,0.9428,21.7700,-8.4700,4.3400,999.0774,9.7590,0.4889,0.8330,1590579434,N
0,2277631,9.8919,0.4283,0.7202,0.3500,-2.0300,-2.3100,999.0798,9.7616,0.4875,0.8026,1590579434,N
0,2283323,9.8824,0.7155,0.9667,-5.5300,0.1400,-0.6300,999.0809,9.7558,0.5336,0.8422,1590579435,N
0,2284511,9.7819,0.5432,0.9236,-1.1900,-0.2800,2.5900,999.0822,9.7576,0.5097,0.8371,1590579435,N
0,2285399,9.8656,0.5360,0.9571,-3.5700,1.6100,1.4700,999.0831,9.7556,0.5027,0.8634,1590579435,N
0,2287409,9.8584,0.4929,1.0911,-1.0500,2.5200,1.0500,999.0845,9.7511,0.4967,0.9166,1590579435,N
0,2289616,9.8369,0.5527,1.1342,-2.5200,4.7600,1.6800,999.0858,9.7440,0.5026,0.9861,1590579435,N
0,2292503,9.8465,0.6245,1.2586,-1.1200,1.1900,0.8400,999.0869,9.7376,0.5204,1.0389,1590579435,N
0,2295710,9.9063,0.4331,1.2538,-1.5400,-0.9100,0.2800,999.0878,9.7365,0.4956,1.0610,1590579435,N
0,2295296,9.8225,0.5767,1.1270,0.7700,-2.6600,-0.7700,999.0886,9.7364,0.5121,1.0540,1590579435,N
0,2295182,9.8800,0.5719,1.1270,-2.6600,-2.7300,-1.6800,999.0888,9.7350,0.5296,1.0582,1590579435,N
0,2296573,9.8560,0.6413,1.0433,2.5900,-3.4300,-0.7000,999.0883,9.7374,0.5501,1.0249,1590579435,N
0,2298564,9.8441,0.5791,0.8734,1.4700,-3.4300,-0.7000,999.0872,9.7434,0.5541,0.9643,1590579436,N
0,2301094,9.7484,0.5121,1.0361,-21.2800,-1.5400,0.5600,999.0862,9.7429,0.5250,0.9849,1590579436,N
0,2304009,9.8824,0.4020,0.6891,3.5000,-1.6100,2.8000,999.0857,9.7557,0.4733,0.8793,1590579436,N
0,2303843,9.8225,0.4594,0.9021,-3.4300,12.3200,3.2900,999.0857,9.7474,0.4671,0.9694,1590579436,N
0,2303050,9.7723,0.4475,1.7252,3.0800,6.7900,1.5400,999.0864,9.7291,0.4725,1.1369,1590579436,N
0,2304020,9.9159,0.2321,1.5625,-8.6800,4.5500,-6.6500,999.0865,9.7051,0.4871,1.3207,1590579436,N
0,2306306,9.6215,0.4666,1.8951,-12.7400,-5.1100,-22.6100,999.0872,9.6363,0.6692,1.6925,1590579436,N
0,2312087,9.5210,0.9763,2.1631,0.8400,-3.7100,-7.4900,999.0883,9.6006,0.7864,1.8384,1590579436,N
0,2320770,9.7077,0.8901,1.2754,-8.1900,1.6100,-16.1700,999.0886,9.5763,0.9451,1.8901,1590579436,N
0,2323592,9.6383,0.8518,1.8425,5.8100,3.2900,2.6600,999.0890,9.5852,0.9131,1.8600,1590579436,N
0,2324575,9.6383,0.9835,1.6798,-17.0800,0.4200,4.1300,999.0888,9.5959,0.8740,1.8238,1590579437,N
0,2325497,9.8225,0.9811,0.8806,-3.5700,8.4700,-4.1300,999.0886,9.6108,0.9591,1.6981,1590579437,N
0,2327130,9.7316,1.3113,2.1942,-14.9800,9.3800,-7.9100,999.0888,9.5442,1.0948,1.9696,1590579437,N
0,2329030,9.6981,1.1773,2.6058,5.7400,1.5400,6.3000,999.0889,9.5356,1.0624,2.0283,1590579437,N
0,2329637,9.6455,0.9858,2.3641,13.9300,-11.8300,14.2800,999.0888,9.5909,0.9116,1.8313,1590579437,N
0,2326212,9.9015,1.5601,1.6343,59.4300,-15.8200,9.8000,999.0890,9.6437,0.9675,1.4943,1590579437,N
0,2324107,9.6981,0.7513,1.1557,16.7300,-8.8200,3.5700,999.0888,9.6791,0.8809,1.3077,1590579437,N
0,2324621,9.9015,0.7633,1.2562,0.0700,1.7500,-0.7700,999.0890,9.6799,0.8650,1.3122,1590579437,N
0,2325794,9.7244,0.7537,1.3304,-10.2900,3.5700,-0.1400,999.0898,9.6754,0.8429,1.3589,1590579437,N
0,2326913,9.8058,0.7250,1.5912,-2.3100,2.3100,2.2400,999.0909,9.6725,0.8012,1.4040,1590579437,N
0,2327844,9.8178,0.4786,1.5505,1.4000,2.3100,2.4500,999.0917,9.6762,0.7181,1.4236,1590579438,N
0,2325246,9.7890,0.6078,1.3615,-0.0700,-0.1400,-0.3500,999.0925,9.6798,0.6963,1.4095,1590579438,N
0,2323527,9.8513,0.7274,1.4788,-0.2800,1.6100,-0.9800,999.0925,9.6741,0.7120,1.4406,1590579438,N
0,2323557,9.7723,0.7131,1.5290,0.3500,-0.4900,1.4700,999.0931,9.6758,0.6967,1.4363,1590579438,N
0,2323827,9.8010,0.5312,1.4955,-0.5600,-0.6300,1.1200,999.0932,9.6804,0.6496,1.4278,1590579438,N
0,2324660,9.7675,0.8279,1.5529,4.9000,0.5600,-0.9800,999.0941,9.6727,0.6974,1.4569,1590579438,N
0,2325418,9.7843,0.7202,1.5218,1.0500,-0.9800,-0.2800,999.0950,9.6723,0.7015,1.4579,1590579438,N
0,2323150,9.7986,0.5958,1.5386,-2.3100,-1.0500,-0.1400,999.0959,9.6730,0.6757,1.4650,1590579438,N
0,2321661,9.7843,0.6365,1.4644,-0.0700,-2.1700,0.9100,999.0962,9.6792,0.6539,1.4336,1590579438,N
0,2321800,9.7843,0.6078,1.3831,-0.2100,0.8400,0.9800,999.0957,9.6825,0.6362,1.4195,1590579438,N
0,2322193,9.7723,0.6963,1.5482,0.1400,0.6300,0.0700,999.0952,9.6778,0.6474,1.4464,1590579439,N
97,2323355,9.8680,0.7035,1.6223,-0.8400,0.0700,2.8000,999.0954,9.6785,0.6302,1.4489,1590579439,N
97,2324520,9.8201,0.4570,1.3950,3.0800,-1.4700,3.3600,999.0958,9.6924,0.5630,1.3822,1590579439,N
98,2322301,9.8201,0.3374,1.4644,-11.0600,-2.5200,1.4700,999.0953,9.6979,0.4901,1.3712,1590579439,N
97,2320694,9.8417,0.4499,1.2849,2.3800,-1.6100,0.2100,999.0953,9.7044,0.4780,1.3294,1590579439,N
97,2320660,9.8082,0.6173,1.4692,1.8200,1.5400,0.6300,999.0953,9.6991,0.5023,1.3584,1590579439,N
97,2320844,9.7627,0.4259,1.5888,-1.2600,0.2800,1.6800,999.0941,9.6974,0.4714,1.3813,1590579439,N
97,2321737,9.8728,0.4331,1.4237,0.9800,-0.7000,1.2600,999.0937,9.7015,0.4504,1.3596,1590579439,N
97,2321917,9.8536,0.4690,1.4405,-0.1400,0.1400,0.9100,999.0937,9.7017,0.4446,1.3603,1590579439,N
97,2318613,9.8034,0.3829,1.4596,-2.3800,-0.2800,1.4700,999.0941,9.7035,0.4160,1.3565,1590579439,N
97,2316642,9.8178,0.4092,1.4859,0.2800,-0.2800,0.9100,999.0942,9.7033,0.4053,1.3607,1590579440,N
97,2316663,9.8154,0.3398,1.4309,0.4200,-0.4900,-0.0700,999.0941,9.7033,0.3915,1.3649,1590579440,N
97,2316874,9.8034,0.3781,1.4501,0.3500,-0.4200,-0.0700,999.0938,9.7021,0.3883,1.3741,1590579440,N
97,2318065,9.7412,0.1723,1.4883,-4.0600,-0.5600,0.2800,999.0944,9.7016,0.3390,1.3905,1590579440,N
97,2318130,9.7938,0.3446,1.4931,5.5300,-2.8700,-0.3500,999.0941,9.7040,0.3433,1.3731,1590579440,N
97,2314924,9.8560,0.4259,1.2993,1.7500,-1.4700,-0.9100,999.0948,9.7061,0.3666,1.3516,1590579440,N
97,2313227,9.8106,0.4546,1.3280,1.0500,0.0700,-0.2800,999.0964,9.7061,0.3866,1.3465,1590579440,N
97,2312950,9.8178,0.4259,1.3783,0.0700,0.3500,0.3500,999.0966,9.7058,0.3908,1.3474,1590579440,N
97,2313210,9.8513,0.3900,1.4094,0.0700,-0.2100,-0.2800,999.0966,9.7043,0.3918,1.3576,1590579440,N
97,2314388,9.8800,0.2991,1.4213,-1.1200,-2.8700,-4.6900,999.0964,9.6949,0.4099,1.4182,1590579440,N
97,2314672,9.8058,0.4834,1.1844,-0.8400,-0.9100,-3.5000,999.0961,9.6946,0.4540,1.4064,1590579441,N
97,2311656,9.7579,0.5527,1.5290,-1.2600,2.0300,0.7000,999.0955,9.6893,0.4676,1.4388,1590579441,N
97,2311155,9.8297,0.4834,1.4309,-0.6300,0.2100,0.9100,999.0951,9.6919,0.4610,1.4230,1590579441,N
97,2311674,9.8106,0.5264,1.4692,0.0700,-0.9100,-0.1400,999.0950,9.6915,0.4725,1.4216,1590579441,N
97,2312320,9.7699,0.5240,1.3424,-0.3500,-1.6100,-0.7700,999.0945,9.6942,0.4864,1.3987,1590579441,N
97,2313306,9.8991,0.5432,1.3137,1.6800,-0.9800,-0.1400,999.0937,9.6987,0.4967,1.3638,1590579441,N
97,2313658,9.7723,0.5719,1.2730,0.3500,0.9800,1.1200,999.0931,9.7021,0.5029,1.3369,1590579441,N
97,2310929,9.7938,0.5408,1.4094,-2.1000,-0.3500,1.8900,999.0919,9.7041,0.4903,1.3269,1590579441,N
97,2309809,9.8034,0.7825,1.2132,-10.1500,0.6300,5.6700,999.0910,9.7126,0.4900,1.2634,1590579441,N
97,2309691,9.9087,0.2034,1.4644,-10.8500,4.9000,4.4800,999.0906,9.7130,0.3915,1.2939,1590579441,N
97,2309523,9.8991,0.2895,1.5529,2.6600,0.5600,-0.4200,999.0906,9.7081,0.3768,1.3350,1590579442,N
98,2310334,9.8489,0.5073,1.3902,6.3000,-0.1400,-0.4200,999.0905,9.7064,0.4098,1.3372,1590579442,N
98,2310791,9.8154,0.3565,1.4333,1.7500,0.4200,1.9600,999.0895,9.7095,0.3824,1.3227,1590579442,N
98,2307425,9.8345,0.2201,1.4596,-2.9400,-1.6100,0.1400,999.0894,9.7104,0.3437,1.3267,1590579442,N
98,2306130,9.8321,0.2417,1.4070,-0.6300,-1.6100,-0.9800,999.0892,9.7092,0.3289,1.3390,1590579442,N
98,2306464,9.8225,0.2584,1.5003,-1.0500,0.1400,-0.1400,999.0899,9.7053,0.3151,1.3703,1590579442,N
98,2307134,9.8249,0.2895,1.4524,-1.2600,0.7700,1.4700,999.0901,9.7069,0.2960,1.3637,1590579442,N
98,2308413,9.8225,0.2417,1.4572,-0.2100,0.2100,0.6300,999.0911,9.7071,0.2789,1.3655,1590579442,N
98,2308504,9.8273,0.2273,1.4812,-0.2800,0.6300,0.6300,999.0922,9.7063,0.2628,1.3741,1590579442,N
98,2305577,9.7890,0.2800,1.6032,-0.7700,-0.2100,-0.3500,999.0922,9.6992,0.2682,1.4223,1590579442,N
98,2304513,9.8489,0.1819,1.5123,1.6800,-1.4000,-0.2100,999.0922,9.7002,0.2523,1.4190,1590579443,N
98,2304815,9.7938,0.2967,1.7300,3.9900,-1.1200,-0.5600,999.0921,9.6930,0.2675,1.4642,1590579443,N
98,2305944,9.7795,0.8040,1.6319,19.8100,-2.4500,-0.9800,999.0919,9.6903,0.3896,1.4549,1590579443,N
98,2308589,9.8967,0.4331,1.2658,-2.3800,0.4900,-1.5400,999.0920,9.6909,0.4101,1.4449,1590579443,N
98,2310061,9.7843,0.4499,1.5673,-1.9600,-0.1400,0.4900,999.0919,9.6883,0.4110,1.4621,1590579443,N
98,2308062,9.8584,0.3494,1.4237,1.5400,-1.5400,-0.5600,999.0920,9.6918,0.4017,1.4415,1590579443,N
99,2307641,9.8297,0.3757,1.3711,-0.1400,-1.8200,-0.6300,999.0922,9.6954,0.3989,1.4180,1590579443,N
98,2308567,9.8034,0.3637,1.2514,12.4600,-2.1000,-2.3100,999.0930,9.7018,0.4180,1.3677,1590579443,N
98,2310291,9.8704,0.4331,1.3783,2.8700,0.2100,-0.0700,999.0928,9.7025,0.4224,1.3611,1590579443,N
99,2312501,9.8489,0.3757,1.3878,0.5600,-1.8900,0.4900,999.0928,9.7066,0.4055,1.3371,1590579443,N
99,2313528,9.8010,0.4164,1.3113,-0.4900,-1.6800,0.4900,999.0930,9.7108,0.3999,1.3080,1590579444,N
99,2311482,9.8106,0.4570,1.2993,-0.1400,-0.4900,-0.4900,999.0936,9.7105,0.4140,1.3062,1590579444,N
99,2311313,9.8393,0.5049,1.3184,-0.9100,0.2800,-0.2100,999.0938,9.7088,0.4323,1.3122,1590579444,N
99,2312266,9.8608,0.4690,1.3208,-0.1400,0.1400,0.4900,999.0942,9.7098,0.4339,1.3046,1590579444,N
99,2313702,9.8369,0.4116,1.3926,-0.8400,-0.1400,-0.1400,999.0941,9.7079,0.4289,1.3206,1590579444,N
99,2315495,9.8728,0.5049,1.3208,1.2600,-1.0500,-0.3500,999.0941,9.7088,0.4448,1.3086,1590579444,N
99,2316246,9.8417,0.4307,1.3304,-1.4700,-0.5600,0.7000,999.0944,9.7107,0.4328,1.2980,1590579444,N
99,2313871,10.0140,0.2201,1.3759,-0.3500,0.7700,0.7000,999.0947,9.7121,0.3833,1.3036,1590579444,N
99,2314146,9.8441,0.4187,1.4285,0.0700,0.0700,0.1400,999.0952,9.7093,0.3881,1.3227,1590579444,N
99,2315116,9.8082,0.5145,1.3878,-0.4200,-1.8200,0.1400,999.0964,9.7094,0.4079,1.3163,1590579444,N
99,2316674,9.8824,0.4140,1.2706,1.3300,-4.8300,-0.9100,999.0971,9.7155,0.4101,1.2691,1590579445,N
99,2318438,9.8225,0.5073,1.1701,4.5500,-4.6900,-1.1200,999.0974,9.7223,0.4345,1.2078,1590579445,N
99,2318322,9.8010,0.5001,1.1342,9.3100,-2.6600,-0.0700,999.0979,9.7287,0.4488,1.1498,1590579445,N
99,2315734,9.8441,0.5671,1.0361,7.0000,3.3600,-1.4700,999.0975,9.7255,0.4952,1.1575,1590579445,N
99,2315812,9.9254,0.4642,1.2897,2.4500,4.5500,-0.8400,999.0971,9.7168,0.5048,1.2245,1590579445,N
99,2317048,9.8536,0.5480,1.2251,-2.3100,2.3800,-1.6100,999.0961,9.7105,0.5292,1.2635,1590579445,N
99,2318331,9.8249,0.5168,1.3472,-13.3000,4.2700,-2.8700,999.0955,9.6947,0.5493,1.3714,1590579445,N
99,2319860,9.8369,0.2560,1.5745,-9.7300,2.8700,-2.8700,999.0944,9.6786,0.5140,1.4936,1590579445,N
99,2319001,9.8441,0.1292,1.6798,11.2700,-3.7800,-9.4500,999.0947,9.6602,0.5262,1.6043,1590579445,N
99,2316397,9.8297,0.7490,1.1773,-10.5000,-7.2100,-8.8200,999.0951,9.6611,0.6304,1.5606,1590579445,N
99,2315623,9.6861,1.3208,1.1390,-41.8600,-3.2900,-7.8400,999.0954,9.6424,0.7885,1.6042,1590579446,N
99,2315797,9.8345,2.1296,1.6343,-36.1200,7.2100,1.4000,999.0947,9.5999,0.9731,1.7506,1590579446,N
99,2316556,9.7268,1.3759,2.3186,-16.5900,2.4500,-4.4800,999.0940,9.5491,1.0669,1.9613,1590579446,N
99,2318229,9.8513,0.4451,1.2969,-51.0300,-10.8500,-7.9100,999.0933,9.5482,0.9467,2.0265,1590579446,N
99,2314756,9.6790,1.5075,1.5840,-1.9600,-1.1900,-7.9800,999.0936,9.5503,1.1052,1.9340,1590579446,N
99,2310063,9.9182,0.9523,1.2443,-26.9500,-9.3800,-5.9500,999.0939,9.5795,1.0833,1.7972,1590579446,N
99,2307787,9.9685,2.1368,0.5288,-83.8600,7.2100,11.4100,999.0940,9.6038,1.0898,1.6580,1590579446,N
99,2305906,9.3799,0.3446,2.2181,-34.1600,14.2800,16.9400,999.0946,9.5937,0.8051,1.8663,1590579446,N
99,2304350,9.9111,0.1651,2.0148,5.0400,13.0900,13.6500,999.0950,9.6165,0.5827,1.8311,1590579446,N
99,2303843,9.5521,-0.2130,2.0243,17.8500,18.8300,8.9600,999.0950,9.6296,0.3847,1.8146,1590579446,N
99,2298493,9.6191,0.7705,2.7709,78.8900,20.0900,8.8900,999.0958,9.6024,0.5065,1.9254,1590579447,N
100,2295258,9.4612,0.2656,3.4959,49.3500,12.8100,13.0200,999.0962,9.5886,0.4470,2.0071,1590579447,N
100,2293770,9.5234,-0.6006,3.6419,44.4500,-2.7300,-1.5400,999.0962,9.6010,0.3322,1.9699,1590579447,N
100,2292882,9.5402,0.7992,1.8544,-6.3700,0.2800,4.3400,999.0959,9.6083,0.3836,1.9247,1590579447,N
100,2292465,9.5115,-0.0287,3.1777,0.8400,1.8900,9.3800,999.0956,9.6302,0.2250,1.8381,1590579447,N
100,2291893,9.4564,0.3111,3.0963,3.4300,-1.4000,1.7500,999.0947,9.6152,0.2317,1.9143,1590579447,N
100,2287214,9.5426,0.0790,2.8570,1.8900,-2.2400,-0.7000,999.0936,9.6130,0.2064,1.9281,1590579447,N
100,2284181,9.5904,0.3087,2.9432,-7.6300,-2.8000,-4.9700,999.0931,9.5643,0.2580,2.1511,1590579447,N
100,2283507,9.5282,0.5623,2.7517,-2.5200,-1.9600,-4.4100,999.0925,9.5060,0.3520,2.3837,1590579447,N
100,2283447,9.4780,0.6365,2.7541,3.0100,0.1400,1.5400,999.0914,9.4935,0.3992,2.4259,1590579447,N
100,2284166,9.5976,0.3876,2.7637,2.8000,-1.1200,2.1000,999.0900,9.5012,0.3802,2.3987,1590579448,N
100,2283903,9.5880,0.4331,2.7996,9.5200,-1.9600,3.0800,999.0892,9.5181,0.3739,2.3315,1590579448,N
100,2280113,9.6215,0.3398,2.7422,3.2900,-0.7000,1.7500,999.0891,9.5217,0.3544,2.3199,1590579448,N
100,2278120,9.5593,0.0981,2.7470,-0.7000,-0.4200,-2.0300,999.0898,9.5036,0.3192,2.3978,1590579448,N
100,2278263,9.5139,0.5049,2.7063,-1.8200,-0.3500,-5.7400,999.0897,9.4402,0.4020,2.6250,1590579448,N
100,2279080,9.5498,0.6485,2.7494,-2.8000,-0.6300,-2.3100,999.0888,9.4115,0.4643,2.7164,1590579448,N
100,2280692,9.5928,0.6102,2.7326,-0.4200,-1.2600,0.9100,999.0879,9.4212,0.4820,2.6795,1590579448,N
100,2282365,9.5139,0.0790,2.6177,3.2200,0.0700,-1.4000,999.0869,9.4229,0.4168,2.6845,1590579448,N
100,2279257,9.5186,0.4546,2.7996,-6.0200,2.8000,-4.1300,999.0864,9.3617,0.4509,2.8853,1590579448,N
100,2277793,9.5210,0.7322,2.8953,-0.6300,-0.6300,-3.7800,999.0861,9.3359,0.5336,2.9541,1590579448,N
100,2278187,9.5617,0.7609,2.7206,0.9800,-1.6800,-0.0700,999.0859,9.3629,0.5775,2.8587,1590579449,N
100,2279260,9.5617,0.7705,2.7685,0.9100,-0.5600,1.4000,999.0868,9.3836,0.6023,2.7850,1590579449,N
101,2281033,9.5569,0.5599,2.7494,-0.2800,-0.1400,1.8900,999.0881,9.4002,0.5758,2.7340,1590579449,N
100,2283354,9.5569,0.6317,2.7494,0.5600,0.2800,0.4900,999.0898,9.4045,0.5818,2.7178,1590579449,N
100,2282699,9.5019,0.5432,2.7805,0.2800,0.2800,1.3300,999.0905,9.4110,0.5624,2.6995,1590579449,N
101,2280353,9.5450,0.5791,2.7494,-4.6900,-1.1200,-1.5400,999.0911,9.3960,0.5694,2.7499,1590579449,N
101,2279780,9.5186,0.6293,2.8211,-7.9100,0.4900,-1.8900,999.0914,9.3654,0.5843,2.8491,1590579449,N
101,2279891,9.4947,0.6221,2.8618,-0.4900,-1.4000,-0.2100,999.0909,9.3684,0.5901,2.8380,1590579449,N
101,2280679,9.5043,0.4857,2.6656,1.4700,-0.7700,1.4000,999.0915,9.3945,0.5583,2.7571,1590579449,N
101,2282756,9.5378,0.6413,2.7757,3.7800,2.3100,2.3100,999.0921,9.4097,0.5607,2.7045,1590579449,N
101,2285610,9.4899,0.7107,2.7374,5.1100,0.8400,1.2600,999.0920,9.4195,0.5867,2.6646,1590579450,N
101,2284621,9.4899,0.6437,2.8857,5.1100,-1.0500,1.1200,999.0914,9.4241,0.5933,2.6465,1590579450,N
101,2283300,9.5498,0.5551,2.7398,-1.9600,-1.3300,0.7700,999.0903,9.4272,0.5735,2.6398,1590579450,N
101,2283584,9.5641,0.5312,2.7446,-1.4700,-1.1900,-0.2100,999.0893,9.4246,0.5620,2.6518,1590579450,N
101,2284362,9.6024,0.5456,2.7350,-0.8400,-0.0700,-0.5600,999.0889,9.4189,0.5601,2.6722,1590579450,N
101,2285940,9.5163,0.6508,2.7709,2.8000,0.2100,-0.5600,999.0881,9.4144,0.5854,2.6826,1590579450,N
100,2287979,9.6144,0.5527,2.7517,-0.2800,0.0700,-0.0700,999.0875,9.4134,0.5768,2.6881,1590579450,N
101,2289287,9.5354,0.4977,2.8235,-0.3500,-0.1400,-0.8400,999.0858,9.4041,0.5660,2.7228,1590579450,N
100,2287463,9.4971,0.6078,2.7541,-1.3300,-0.4200,-0.7700,999.0842,9.3977,0.5774,2.7425,1590579450,N
100,2286896,9.5091,0.5838,2.7565,0.9800,-0.7000,0.5600,999.0844,9.4055,0.5735,2.7164,1590579450,N
100,2287911,9.5593,0.4522,2.7254,-0.1400,0.3500,0.5600,999.0850,9.4109,0.5432,2.7039,1590579451,N
100,2289133,9.5330,0.5073,2.8570,0.4200,0.2100,-0.5600,999.0861,9.4019,0.5400,2.7355,1590579451,N
100,2291151,9.5593,0.5360,2.8068,0.1400,-0.5600,0.2100,999.0877,9.4038,0.5353,2.7300,1590579451,N
100,2293266,9.5521,0.5647,2.7398,0.9800,-0.6300,0.5600,999.0887,9.4121,0.5357,2.7010,1590579451,N
100,2293377,9.5880,0.5791,2.8187,0.9100,0.2800,-0.1400,999.0900,9.4081,0.5447,2.7130,1590579451,N
100,2291750,9.5713,0.4977,2.7613,0.9100,-0.7000,0.2800,999.0908,9.4138,0.5320,2.6960,1590579451,N
100,2291922,9.4804,0.5408,2.8044,-0.3500,-0.4200,-0.0700,999.0911,9.4091,0.5325,2.7120,1590579451,N
100,2292971,9.5330,0.5073,2.7494,0.4200,-0.8400,-0.2800,999.0912,9.4105,0.5284,2.7082,1590579451,N
100,2294427,9.5809,0.5336,2.7446,3.7800,-1.1200,-1.2600,999.0905,9.4124,0.5426,2.6986,1590579451,N
99,2296756,9.5282,0.6772,2.6847,3.2200,-1.6100,-0.2800,999.0896,9.4210,0.5735,2.6621,1590579451,N
100,2299409,9.5426,0.6078,2.6752,1.4000,-1.0500,0.5600,999.0894,9.4296,0.5751,2.6309,1590579452,N
100,2298604,9.5402,0.5121,2.6632,-0.4200,-0.7000,-0.4900,999.0894,9.4287,0.5643,2.6368,1590579452,N
99,2297985,9.4923,0.6197,2.6082,1.0500,-1.0500,-0.9800,999.0897,9.4291,0.5835,2.6310,1590579452,N
99,2298779,9.5354,0.6006,2.6249,0.7700,0.2100,0.0700,999.0893,9.4318,0.5863,2.6206,1590579452,N
99,2299932,9.5713,0.5647,2.7852,0.9800,-1.1900,0.6300,999.0894,9.4338,0.5751,2.6158,1590579452,N
99,2301298,9.5689,0.6269,2.7805,-5.4600,-2.5900,3.4300,999.0890,9.4451,0.5444,2.5816,1590579452,N
99,2302215,9.7292,0.5097,2.8331,9.5900,-14.2800,1.7500,999.0887,9.4938,0.5194,2.4018,1590579452,N
99,2303319,9.6191,0.6987,2.3976,18.2000,-22.2600,0.4200,999.0885,9.5600,0.5483,2.1158,1590579452,N
99,2302754,9.7986,0.8231,1.3089,22.4000,-15.5400,-8.6800,999.0878,9.6102,0.6891,1.8273,1590579452,N
99,2306460,9.6431,1.5553,1.2778,-2.7300,0.2100,-3.9200,999.0874,9.6076,0.8890,1.7534,1590579452,N
99,2311384,9.7244,0.8662,2.2636,-21.5600,0.2100,-3.8500,999.0875,9.5716,0.8951,1.9376,1590579453,N
99,2314107,9.7364,1.3496,1.5266,1.8200,-1.0500,1.8200,999.0880,9.5905,0.9648,1.8061,1590579453,N
99,2316653,9.6766,1.2419,1.8903,-39.3400,-2.5900,2.5200,999.0886,9.5809,0.9463,1.8658,1590579453,N
98,2316822,9.8249,0.8590,1.7755,2.1000,-5.8800,0.7000,999.0890,9.6016,0.9094,1.7758,1590579453,N
99,2314052,9.7819,0.8231,1.4668,0.4200,0.4900,0.9100,999.0887,9.6174,0.8845,1.7013,1590579453,N
98,2311038,9.7125,1.8114,1.9956,11.6900,1.7500,2.4500,999.0876,9.5945,1.0423,1.7405,1590579453,N
98,2310680,9.7436,0.8542,1.8497,5.0400,-2.3100,7.0700,999.0878,9.6169,0.9399,1.6742,1590579453,N
98,2310973,9.8273,0.5838,1.6582,-4.2000,-3.5700,5.0400,999.0890,9.6412,0.8076,1.6019,1590579453,N
98,2311743,9.7819,0.5551,1.6391,1.9600,-1.0500,3.6400,999.0895,9.6549,0.7219,1.5597,1590579453,N
98,2313027,9.8656,0.6245,1.6606,4.9700,-0.2100,0.2800,999.0906,9.6567,0.7011,1.5580,1590579453,N
98,2313156,9.7053,0.5192,1.6558,2.2400,0.0700,-0.7700,999.0923,9.6555,0.6728,1.5777,1590579454,N
98,2310353,9.8034,0.6485,1.6582,-0.9800,-0.5600,0.3500,999.0944,9.6558,0.6608,1.5812,1590579454,N
98,2309376,9.7938,0.5456,1.6247,-0.7000,0.4200,0.3500,999.0959,9.6568,0.6329,1.5863,1590579454,N
98,2309455,9.7388,0.4929,1.7755,-0.4200,0.5600,-0.4900,999.0974,9.6512,0.6093,1.6288,1590579454,N
98,2309883,9.7747,0.6652,1.8401,1.6800,0.0700,0.0700,999.0986,9.6451,0.6195,1.6607,1590579454,N
98,2311268,9.7101,0.5145,1.8162,0.9100,-0.9800,0.7000,999.0995,9.6458,0.5911,1.6673,1590579454,N
98,2311636,9.7938,0.4475,1.7085,0.4900,-1.1900,-0.6300,999.1007,9.6475,0.5650,1.6663,1590579454,N
98,2308121,9.7484,0.6317,1.7252,0.7000,-0.4200,-1.0500,999.1013,9.6435,0.5861,1.6821,1590579454,N
98,2306277,9.6526,0.5575,1.7683,-0.2100,-1.4000,0.5600,999.1014,9.6448,0.5730,1.6791,1590579454,N
97,2305950,9.7627,0.6389,1.7109,6.7900,-3.0800,-2.3800,999.1004,9.6450,0.6070,1.6662,1590579454,N
97,2306315,9.7938,0.6461,1.4979,1.1900,-0.3500,-1.9600,999.0997,9.6473,0.6315,1.6437,1590579455,N
97,2307271,9.8154,0.7729,1.7157,1.1200,-1.1200,-0.4900,999.0991,9.6452,0.6598,1.6445,1590579455,N
97,2308474,9.8201,0.4905,1.4788,-10.8500,1.1900,-1.3300,999.0986,9.6442,0.6285,1.6625,1590579455,N
97,2304923,9.7986,0.6628,1.8640,-1.2600,0.4900,-1.7500,999.0990,9.6321,0.6480,1.7245,1590579455,N
97,2302167,9.7675,0.6891,1.5864,1.3300,-1.2600,-0.1400,999.0992,9.6399,0.6552,1.6775,1590579455,N
97,2301405,9.7723,0.6173,1.6223,-1.6100,0.4200,0.7000,999.0993,9.6436,0.6393,1.6621,1590579455,N
97,2301315,9.7771,0.5288,1.7013,-1.4700,0.1400,0.4200,999.0998,9.6447,0.6111,1.6663,1590579455,N
97,2302034,9.7244,0.6317,1.6893,-1.1200,0.9100,-1.7500,999.1005,9.6376,0.6300,1.6998,1590579455,N
97,2303352,9.7819,0.6867,1.7324,-0.4900,-0.4200,-0.9100,999.1009,9.6350,0.6460,1.7089,1590579455,N
96,2300494,9.7603,0.7155,1.6893,0.0700,-1.4000,2.1700,999.1016,9.6437,0.6366,1.6623,1590579455,N
96,2297612,9.8034,0.5886,1.5482,11.3400,-1.8200,-1.9600,999.1021,9.6508,0.6497,1.6154,1590579456,N
96,2297588,9.8321,0.7801,1.5769,5.5300,1.0500,-0.7700,999.1028,9.6497,0.6866,1.6072,1590579456,N
96,2298428,9.7723,0.8590,1.7228,0.4900,0.8400,0.3500,999.1035,9.6438,0.7169,1.6292,1590579456,N
96,2299815,9.7890,0.7274,1.7180,0.9100,0.1400,0.1400,999.1042,9.6420,0.7166,1.6394,1590579456,N
96,2301407,9.7053,0.6939,1.7707,0.1400,-1.1200,0.6300,999.1045,9.6420,0.7036,1.6455,1590579456,N
95,2299117,9.7484,0.6652,1.6941,-2.7300,-0.9800,-0.7700,999.1050,9.6406,0.6969,1.6564,1590579456,N
96,2296253,9.7699,0.7250,1.7515,-0.6300,-0.3500,0.3500,999.1050,9.6392,0.6961,1.6649,1590579456,N
96,2295910,9.7579,0.6006,1.6391,-1.8200,-0.3500,0.2100,999.1038,9.6426,0.6715,1.6554,1590579456,N
95,2296252,9.8130,0.7059,1.7013,-0.2800,0.0700,-0.0700,999.1030,9.6414,0.6763,1.6605,1590579456,N
95,2297235,9.7149,0.7681,1.7683,1.1900,-0.4900,-0.4200,999.1024,9.6371,0.6969,1.6764,1590579456,N
95,2298672,9.6933,0.4522,1.6869,-8.8200,0.4200,-0.4200,999.1014,9.6352,0.6435,1.7088,1590579457,N
95,2296816,9.7316,0.6676,1.8473,0.1400,-0.3500,-0.4200,999.1011,9.6303,0.6500,1.7335,1590579457,N
95,2294167,9.7843,0.7035,1.6582,0.4200,-0.8400,-0.0700,999.1004,9.6348,0.6584,1.7049,1590579457,N
95,2293553,9.6885,0.7322,1.6893,0.6300,0.1400,0.1400,999.1008,9.6352,0.6719,1.6977,1590579457,N
95,2293828,9.8130,0.6126,1.6845,0.2800,0.1400,0.4200,999.1020,9.6385,0.6547,1.6857,1590579457,N
95,2294889,9.8010,0.6915,1.7276,-0.4200,0.0700,0.6300,999.1019,9.6391,0.6538,1.6827,1590579457,N
95,2296366,9.7771,0.6485,1.7827,-2.6600,0.2800,1.2600,999.1020,9.6386,0.6377,1.6914,1590579457,N
95,2295695,9.7747,0.6006,1.7109,0.8400,-0.5600,1.2600,999.1031,9.6438,0.6173,1.6691,1590579457,N
95,2292696,9.7436,0.6604,1.7037,0.1400,0.4900,-0.0700,999.1038,9.6418,0.6261,1.6773,1590579457,N
95,2291892,9.7938,0.6628,1.7611,-0.4900,0.5600,0.2800,999.1047,9.6392,0.6292,1.6911,1590579457,N
95,2292372,9.7986,0.5815,1.7252,0.4900,-0.4200,-0.0700,999.1052,9.6404,0.6181,1.6882,1590579458,N
95,2293497,9.7843,0.6891,1.7228,1.1900,-0.3500,-0.4200,999.1052,9.6392,0.6344,1.6891,1590579458,N
95,2295103,9.7651,0.6173,1.7539,-1.2600,-0.7000,0.4900,999.1061,9.6402,0.6228,1.6881,1590579458,N
95,2296177,9.7747,0.6365,1.7085,0.5600,-0.3500,-0.0700,999.1057,9.6408,0.6243,1.6839,1590579458,N
95,2293425,9.7340,0.6604,1.7396,-0.2100,-0.1400,-0.5600,999.1053,9.6378,0.6347,1.6972,1590579458,N
95,2292094,9.7579,0.6437,1.7635,-0.2100,0.2100,0.1400,999.1052,9.6362,0.6337,1.7066,1590579458,N
95,2292562,9.7723,0.6126,1.7468,0.3500,-0.5600,0.1400,999.1053,9.6375,0.6260,1.7022,1590579458,N
95,2293435,9.8058,0.6700,1.6702,-0.8400,-0.2800,-0.2100,999.1052,9.6388,0.6333,1.6920,1590579458,N
95,2294966,9.7101,0.7561,1.6941,-2.4500,-0.2800,-0.2800,999.1047,9.6365,0.6563,1.6963,1590579458,N
95,2296985,9.8297,0.5073,1.7898,0.2800,-0.2800,-0.3500,999.1045,9.6361,0.6275,1.7093,1590579458,N
95,2294958,9.8034,0.6580,1.7396,3.6400,-1.2600,-0.7700,999.1049,9.6373,0.6394,1.6982,1590579459,N
95,2293025,9.7531,0.6293,1.6391,1.6100,-0.4900,0.0700,999.1055,9.6418,0.6362,1.6738,1590579459,N
95,2293027,9.7986,0.6628,1.6989,-0.1400,-0.2100,0.0700,999.1053,9.6421,0.6383,1.6710,1590579459,N
95,2293631,9.7292,0.6437,1.7013,0.2800,0.0700,0.0700,999.1052,9.6418,0.6379,1.6731,1590579459,N
95,2295055,9.7412,0.5982,1.7563,0.2800,-0.4900,0.3500,999.1062,9.6420,0.6251,1.6766,1590579459,N
95,2296711,9.8178,0.5838,1.8042,1.1200,-0.4900,0.9800,999.1071,9.6433,0.6064,1.6760,1590579459,N
95,2297415,9.7388,0.6676,1.8090,0.0700,0.1400,0.4200,999.1078,9.6397,0.6136,1.6944,1590579459,N
95,2295096,9.7388,0.6461,1.7468,-0.8400,0.1400,0.5600,999.1084,9.6391,0.6131,1.6977,1590579459,N
95,2294639,9.7651,0.5647,1.6869,-2.2400,0.3500,0.4900,999.1096,9.6408,0.5961,1.6941,1590579459,N
95,2295683,9.7723,0.4834,1.7779,-2.8000,2.1000,-0.6300,999.1100,9.6338,0.5783,1.7394,1590579459,N
95,2296956,9.7388,0.6939,1.9789,1.7500,-0.9800,0.7000,999.1106,9.6292,0.5932,1.7596,1590579460,N
95,2298716,9.7364,0.6939,1.7444,2.1000,-1.9600,0.4900,999.1100,9.6348,0.6065,1.7242,1590579460,N
95,2300755,9.7747,0.5408,1.7396,-1.4000,-0.2100,-0.5600,999.1093,9.6343,0.5951,1.7312,1590579460,N
95,2298930,9.7029,0.6963,1.7994,-1.1200,0.9800,-0.0700,999.1083,9.6288,0.6150,1.7547,1590579460,N
95,2297630,9.7819,0.6173,1.7755,-1.0500,-0.4900,0.7000,999.1072,9.6315,0.6057,1.7430,1590579460,N
95,2297848,9.7579,0.5862,1.8473,-0.8400,-0.5600,-0.3500,999.1072,9.6287,0.6017,1.7599,1590579460,N
95,2298527,9.7508,0.6485,1.7874,-0.4200,-1.0500,-0.4200,999.1074,9.6285,0.6111,1.7578,1590579460,N
95,2299708,9.7675,0.6054,1.7731,0.7700,-1.6100,0.4900,999.1070,9.6334,0.6023,1.7333,1590579460,N
95,2301564,9.7890,0.6150,1.6989,0.2800,-0.4200,0.2100,999.1071,9.6370,0.6008,1.7141,1590579460,N
95,2301638,9.7843,0.6532,1.8209,0.2100,-0.4200,-0.5600,999.1072,9.6329,0.6136,1.7321,1590579460,N
95,2299565,9.7890,0.7155,1.6822,0.4900,0.0700,-0.0700,999.1070,9.6345,0.6330,1.7166,1590579461,N
95,2299032,9.7651,0.6221,1.8568,0.0700,0.2800,0.4200,999.1066,9.6315,0.6259,1.7359,1590579461,N
95,2299521,9.7579,0.6245,1.6750,0.4200,-0.4200,0.4200,999.1066,9.6365,0.6203,1.7100,1590579461,N
95,2300672,9.7890,0.6197,1.8066,0.4200,-0.7000,0.2100,999.1070,9.6362,0.6156,1.7133,1590579461,N
95,2302249,9.7675,0.6485,1.8090,0.0700,-0.8400,-0.0700,999.1077,9.6347,0.6196,1.7202,1590579461,N
95,2304009,9.7699,0.6006,1.7563,-0.2100,-1.0500,-0.4900,999.1081,9.6350,0.6167,1.7196,1590579461,N
95,2302278,9.7436,0.6221,1.7659,-1.6100,0.4200,-0.6300,999.1080,9.6310,0.6210,1.7403,1590579461,N
95,2301032,9.7484,0.6676,1.8042,1.1200,-0.8400,0.2100,999.1075,9.6315,0.6264,1.7355,1590579461,N
95,2301441,9.7795,0.7107,1.7252,-0.2100,0.2800,0.7700,999.1072,9.6334,0.6346,1.7220,1590579461,N
95,2302150,9.7436,0.5958,1.7324,-0.2100,0.3500,0.2800,999.1069,9.6344,0.6234,1.7207,1590579461,N
95,2303462,9.7484,0.6269,1.7731,-0.5600,0.2800,0.4900,999.1061,9.6340,0.6182,1.7248,1590579462,N
95,2305302,9.7173,0.6532,1.7898,0.4200,-0.2800,1.0500,999.1058,9.6354,0.6146,1.7183,1590579462,N
95,2304950,9.7388,0.6173,1.8425,0.9800,-0.3500,0.7700,999.1057,9.6349,0.6073,1.7232,1590579462,N
95,2302813,9.6957,0.6102,1.7515,0.2800,-0.6300,0.1400,999.1065,9.6359,0.6051,1.7185,1590579462,N
95,2302661,9.7173,0.5743,1.7683,0.6300,-0.4200,0.2100,999.1071,9.6367,0.5960,1.7172,1590579462,N
95,2303463,9.7986,0.6221,1.7994,-0.8400,-0.2100,0.0700,999.1075,9.6350,0.5974,1.7266,1590579462,N
95,2304492,9.8154,0.6102,1.7611,-0.5600,-0.4900,0.2800,999.1081,9.6363,0.5939,1.7205,1590579462,N
95,2306155,9.7986,0.4953,1.8257,-0.8400,-0.4900,0.2800,999.1085,9.6363,0.5686,1.7287,1590579462,N
95,2307236,9.7244,0.5480,1.7420,-0.0700,-0.7700,-0.1400,999.1086,9.6376,0.5636,1.7234,1590579462,N
95,2304762,9.8130,0.6413,1.7563,0.2100,-0.7700,-0.1400,999.1078,9.6377,0.5771,1.7180,1590579462,N
95,2303615,9.8010,0.5025,1.9717,2.2400,-1.8200,1.4000,999.1079,9.6395,0.5480,1.7174,1590579463,N
94,2304087,9.7555,0.6173,1.6295,9.9400,-7.1400,-0.4200,999.1075,9.6567,0.5628,1.6130,1590579463,N
95,2304799,9.6263,0.6293,1.5505,1.0500,-3.1500,0.4900,999.1068,9.6643,0.5682,1.5649,1590579463,N
94,2306069,9.7723,0.7083,1.5529,0.5600,-4.0600,-1.5400,999.1067,9.6664,0.6019,1.5390,1590579463,N
94,2307657,9.7890,0.6652,1.2730,-3.5700,2.2400,0.1400,999.1068,9.6711,0.6145,1.5045,1590579463,N
94,2305473,9.7579,0.6437,1.6199,-0.8400,3.8500,1.1900,999.1068,9.6643,0.6145,1.5474,1590579463,N
94,2303345,9.7675,0.5408,1.5840,-2.3800,2.7300,1.4700,999.1071,9.6632,0.5880,1.5641,1590579463,N
94,2303447,9.8249,0.5049,1.8520,-2.6600,0.3500,2.3100,999.1075,9.6612,0.5480,1.5907,1590579463,N
94,2304233,9.8752,0.4690,1.7994,5.3900,-6.5800,0.6300,999.1078,9.6709,0.5195,1.5411,1590579463,N
94,2305503,9.7484,0.5743,1.4788,-2.5200,-7.6300,-6.9300,999.1081,9.6662,0.5777,1.5499,1590579463,N
94,2306726,9.7651,1.1773,1.1844,-6.4400,-7.0000,-1.4700,999.1083,9.6778,0.6867,1.4281,1590579464,N
94,2304502,9.8393,0.6245,1.4213,-0.2100,-3.1500,3.9200,999.1088,9.6920,0.6312,1.3555,1590579464,N
94,2301546,9.9039,0.4379,1.2132,0.9800,-2.6600,-3.6400,999.1094,9.6952,0.6187,1.3381,1590579464,N
94,2300674,9.7029,0.7322,1.3137,8.6100,-3.7800,-1.1200,999.1104,9.6996,0.6486,1.2914,1590579464,N
94,2300840,9.8082,1.1294,0.9571,-3.6400,-1.6100,-3.5700,999.1119,9.6988,0.7637,1.2328,1590579464,N
94,2301731,9.7986,0.8925,1.2491,0.4200,0.7700,0.9100,999.1130,9.6977,0.7802,1.2312,1590579464,N
94,2302967,9.8369,0.6748,1.3400,3.9200,-0.9100,2.5200,999.1140,9.7030,0.7358,1.2172,1590579464,N
94,2301322,9.9757,0.5862,1.3639,22.3300,-12.1100,0.2100,999.1142,9.7207,0.6863,1.0988,1590579464,N
94,2298941,9.7412,0.8997,0.5838,14.9800,-13.0200,-2.8700,999.1137,9.7413,0.7258,0.8663,1590579464,N
94,2298829,9.8871,0.9141,0.4379,0.2100,-0.0700,-1.1900,999.1133,9.7457,0.7707,0.7727,1590579464,N
94,2299843,9.9111,0.8590,0.9308,-1.1200,-2.5900,1.1900,999.1135,9.7463,0.7631,0.7726,1590579465,N
94,2300507,9.8273,0.7681,0.5480,1.8200,-3.5000,0.6300,999.1137,9.7543,0.7433,0.6867,1590579465,N
94,2301743,9.8848,0.7609,0.6006,0.2100,-0.3500,-0.7000,999.1144,9.7553,0.7491,0.6661,1590579465,N
94,2300391,9.8584,0.8949,0.5862,-1.7500,0.2100,0.0700,999.1159,9.7544,0.7732,0.6511,1590579465,N
94,2298369,9.8656,0.8686,0.4594,-3.9200,3.3600,-0.2800,999.1161,9.7521,0.8078,0.6437,1590579465,N
94,2297900,9.9087,0.8447,0.7848,-0.2800,1.8900,0.3500,999.1161,9.7483,0.8198,0.6850,1590579465,N
94,2298290,9.8106,0.8375,0.7011,1.5400,1.8900,0.6300,999.1156,9.7465,0.8278,0.7010,1590579465,N
94,2299445,9.8536,0.8160,0.8088,0.4900,1.6800,0.3500,999.1154,9.7439,0.8297,0.7338,1590579465,N
94,2301072,9.8871,0.7872,0.8279,1.0500,-0.2800,-0.1400,999.1160,9.7438,0.8194,0.7472,1590579465,N
94,2299303,9.9111,0.7896,0.8925,1.5400,-1.8200,-2.5200,999.1166,9.7418,0.8263,0.7654,1590579465,N
94,2298030,9.8584,0.8183,0.7992,4.3400,-0.7700,-6.2300,999.1168,9.7355,0.8787,0.7861,1590579466,N
94,2298710,9.9206,0.8183,0.6724,10.9900,-6.0900,-7.2100,999.1174,9.7377,0.9069,0.7253,1590579466,N
94,2299840,9.9278,1.4142,0.9715,35.4900,6.6500,-4.8300,999.1180,9.7094,1.1074,0.8199,1590579466,N
94,2304840,10.2174,2.9216,1.0457,-6.0900,-1.7500,29.6100,999.1187,9.7139,1.0967,0.7802,1590579466,N
94,2310664,10.7294,0.8710,1.4046,82.9500,53.8300,37.3800,999.1185,9.6522,1.2585,1.1925,1590579466,N
94,2312973,7.0851,-0.0287,2.3833,139.9300,132.1600,66.0800,999.1180,9.3214,2.0042,2.2946,1590579466,N
94,2315255,5.4604,0.6341,3.9147,125.6500,180.1100,91.0700,999.1173,8.7664,2.4760,3.6318,1590579466,N
94,2320953,4.1396,-0.7609,6.2022,46.6200,202.0900,117.8800,999.1158,8.0563,1.9101,5.2553,1590579466,N
94,2326054,4.2138,-2.5292,8.6022,-14.4900,89.3200,137.9700,999.1136,7.6662,0.1797,6.1129,1590579466,N
94,2335521,4.8407,-4.1444,11.8421,1.5400,89.2500,131.2500,999.1115,6.6937,-0.8357,7.1180,1590579466,N
95,2352710,-0.1149,-4.6947,10.5260,5.7400,55.1600,63.9800,999.1092,5.0838,-1.2250,8.2961,1590579467,N
94,2365169,0.0981,-4.1276,9.8345,-10.5000,37.1000,36.4700,999.1073,2.9486,-1.1055,9.2873,1590579467,N
95,2373686,-1.0433,-2.9121,9.1693,34.3700,36.4700,28.4200,999.1055,0.3990,1.1309,9.7331,1590579467,N
95,2382103,-1.5793,-2.6249,9.9517,14.0700,24.6400,20.1600,999.1046,-1.1123,8.2877,5.1232,1590579467,N
95,2390326,-1.8138,-2.4598,9.7484,-5.3200,9.3800,20.3000,999.1044,-2.0972,-7.1761,6.3463,1590579467,N
95,2398735,-1.9813,-2.2851,9.3655,6.4400,4.1300,20.7900,999.1052,-2.8238,-4.5990,8.1881,1590579467,N
95,2405216,-1.8209,-2.6704,9.2435,33.0400,12.5300,14.2100,999.1063,-3.3252,-4.0797,8.2746,1590579467,N
95,2410168,-2.6321,-1.2371,9.8776,-1.8900,-1.4000,12.6700,999.1078,-3.6032,-2.9707,8.6233,1590579467,N
95,2416457,-2.4933,-1.2467,9.9541,15.3300,1.8900,9.7300,999.1090,-3.8611,-2.4320,8.6803,1590579467,N
95,2421209,-2.5364,-0.1627,10.1336,13.5800,-1.8900,13.3700,999.1103,-4.1431,-1.7466,8.7152,1590579467,N
95,2424949,-2.3306,-0.5049,9.4804,28.7700,-0.6300,7.7000,999.1115,-4.5345,-1.4008,8.5818,1590579468,N
95,2427238,-2.9097,0.4331,9.0425,23.7300,6.0200,-10.2200,999.1135,-5.4360,-1.1144,8.0857,1590579468,N
95,2430341,-2.4120,0.8112,10.2365,-26.6700,-3.0100,-7.3500,999.1161,-5.2140,-0.7549,8.2713,1590579468,N
95,2434376,-2.2947,-0.7609,9.0497,-30.4500,-14.7700,-5.8100,999.1190,-1.5804,-0.3859,9.6708,1590579468,N
95,2435906,-2.0674,0.0096,9.3488,-18.9700,-6.5100,-1.7500,999.1212,-1.8075,-0.4670,9.6273,1590579468,N
96,2436676,-2.4096,-0.7537,9.6503,-8.7500,1.1200,0.9100,999.1228,-2.0639,-0.5993,9.5683,1590579468,N
95,2438099,-2.2349,-0.8327,9.7460,-8.2600,-2.3800,-0.6300,999.1241,-2.1793,-0.7111,9.5350,1590579468,N
95,2440222,-2.2014,-0.8638,9.8848,-14.7700,-8.1900,11.5500,999.1240,-2.3285,-0.8379,9.4893,1590579468,N
96,2441359,-2.1176,-0.9069,9.0736,-8.8200,-2.3800,-9.0300,999.1237,-2.3399,-0.9407,9.4768,1590579468,N
95,2443661,-1.9454,-2.0506,10.0546,-25.5500,-1.8200,-0.9800,999.1233,-2.4069,-1.3377,9.4121,1590579468,N
95,2446513,-2.0818,-1.6128,9.5737,-5.4600,-4.9000,-4.4100,999.1232,-2.2954,-1.4254,9.4271,1590579469,N
96,2447009,-2.0291,-1.6319,9.4540,-23.5900,-0.2800,4.6900,999.1238,-2.3980,-1.6534,9.3641,1590579469,N
95,2446904,-1.9262,-2.0602,9.7268,-3.1500,-2.1000,-0.7000,999.1241,-2.2606,-1.7363,9.3833,1590579469,N
96,2447270,-2.0267,-2.0435,9.4397,-0.9800,0.7000,0.6300,999.1241,-2.2116,-1.7973,9.3834,1590579469,N
95,2446825,-2.0195,-2.2421,9.3942,-0.1400,-0.0700,0.0700,999.1244,-2.1639,-1.8760,9.3792,1590579469,N
95,2446169,-2.0363,-2.0961,9.5378,-6.2300,2.0300,2.5200,999.1248,-2.1800,-1.9649,9.3572,1590579469,N
95,2448438,-2.0435,-2.3880,9.4636,-5.2500,-0.9800,1.2600,999.1249,-2.1608,-2.0745,9.3380,1590579469,N
96,2450120,-2.0674,-2.3115,9.1669,10.2200,2.8700,-1.5400,999.1248,-2.1236,-2.0507,9.3518,1590579469,N
95,2450527,-2.1392,-2.0435,9.5809,1.3300,0.4200,-1.5400,999.1240,-2.1119,-2.0332,9.3582,1590579469,N
96,2451727,-2.1057,-2.0602,9.5354,2.3100,0.9800,1.0500,999.1232,-2.1038,-2.0134,9.3643,1590579469,N
95,2450840,-2.1559,-2.0148,9.3823,2.1700,0.0700,-0.1400,999.1225,-2.1042,-1.9945,9.3683,1590579470,N
96,2448308,-2.1607,-2.0100,9.5306,-0.8400,-0.1400,0.7000,999.1223,-2.1119,-1.9961,9.3662,1590579470,N
95,2447634,-2.1392,-1.9836,9.4277,-0.5600,-0.2800,0.0700,999.1226,-2.1148,-1.9947,9.3658,1590579470,N
95,2447838,-2.1775,-1.9717,9.4636,0.0700,-0.3500,0.1400,999.1238,-2.1199,-1.9839,9.3670,1590579470,N
95,2449034,-2.1990,-2.1296,9.3416,-3.9900,-0.0700,2.9400,999.1252,-2.1572,-2.0401,9.3464,1590579470,N
95,2451664,-2.0483,-2.1416,9.5019,0.2100,-0.1400,0.2100,999.1270,-2.1272,-2.0513,9.3508,1590579470,N
95,2452133,-2.1535,-2.0841,9.3703,1.7500,0.2800,0.4200,999.1275,-2.1271,-2.0419,9.3529,1590579470,N
95,2449804,-2.1679,-2.0100,9.3703,0.7700,-0.0700,0.0700,999.1287,-2.1308,-2.0278,9.3551,1590579470,N
95,2450115,-2.1559,-2.0602,9.4373,0.9800,-0.2100,0.3500,999.1301,-2.1267,-2.0207,9.3576,1590579470,N
95,2451057,-2.1631,-2.0267,9.4684,0.0700,-0.1400,0.2800,999.1312,-2.1280,-2.0156,9.3584,1590579470,N
95,2452030,-2.1918,-2.0076,9.4445,-1.1200,-1.0500,-0.0700,999.1333,-2.1322,-2.0159,9.3574,1590579471,N
95,2453637,-2.1488,-1.9669,9.4325,1.1900,0.1400,-0.0700,999.1366,-2.1288,-1.9940,9.3628,1590579471,N
95,2453564,-2.1583,-2.0698,9.4014,1.1900,-0.8400,-0.1400,999.1397,-2.1197,-1.9936,9.3650,1590579471,N
95,2449206,-2.1153,-2.0459,9.4277,-0.4900,-0.2800,0.2800,999.1427,-2.1160,-2.0038,9.3636,1590579471,N
95,2448950,-2.1416,-2.0243,9.5139,-1.0500,-0.4900,0.2800,999.1456,-2.1153,-2.0083,9.3628,1590579471,N
94,2450248,-2.1176,-2.0865,9.5306,-6.1600,-3.0800,-1.6800,999.1467,-2.1041,-2.0604,9.3540,1590579471,N
94,2451344,-2.0004,-2.4311,10.0379,-3.3600,-7.7700,-6.7200,999.1478,-1.9888,-2.1109,9.3680,1590579471,N
94,2453802,-2.1823,-1.4548,11.2941,-17.4300,-30.5200,-10.7100,999.1481,-1.7447,-2.0516,9.4296,1590579471,N
94,2460107,-1.2826,-4.5129,11.8899,-103.1800,-112.9800,-47.8800,999.1484,-0.8260,-2.5652,9.4291,1590579471,N
94,2462498,0.5408,-6.4367,7.9585,-113.7500,-147.2100,-111.0900,999.1487,0.7269,-2.3976,9.4812,1590579471,N
94,2461856,3.2686,-5.3671,5.7500,-58.4500,-129.0800,-154.1400,999.1487,2.2942,-1.8931,9.3447,1590579472,N
94,2457466,6.4128,-3.4241,4.2449,-42.9800,-92.1900,-162.0500,999.1486,3.5591,-7.1984,5.6290,1590579472,N
94,2444476,8.0136,-1.1988,2.3593,-28.4200,-77.0000,-139.5100,999.1486,5.5898,-6.0595,5.3111,1590579472,N
94,2428940,8.9587,0.2058,1.3711,0.2100,-33.1100,-108.8500,999.1480,7.3458,-4.0687,5.0651,1590579472,N
94,2423379,9.5043,2.3809,1.6152,6.4400,-12.7400,-77.2100,999.1479,8.2803,-2.1466,4.7957,1590579472,N
94,2413393,9.4780,2.1559,1.6606,-43.7500,-2.9400,-57.0500,999.1470,8.9216,-0.9143,3.9673,1590579472,N
94,2408210,9.1860,3.5294,2.3450,1.5400,-2.9400,-59.4300,999.1459,9.6891,0.3384,-1.4758,1590579472,N
94,2411012,8.9946,4.1635,2.3737,-28.3500,-1.2600,-35.7000,999.1451,8.3912,1.1764,4.9370,1590579472,N
94,2414574,8.6118,4.5870,1.4788,-27.2300,-10.7800,-14.1400,999.1439,8.7378,1.8418,4.0533,1590579472,N
94,2419325,8.7290,3.9960,2.4168,-14.0000,2.8000,-21.4900,999.1425,8.7270,2.3493,3.8067,1590579472,N
94,2424547,8.3103,4.1587,2.2301,-19.0400,8.2600,-14.0000,999.1403,8.6738,2.7566,3.6518,1590579473,N
93,2418680,8.3557,5.4221,3.3452,-10.3600,15.1900,0.2100,999.1390,8.5052,3.1561,3.7243,1590579473,N
94,2409849,8.3701,4.5751,2.6297,19.6700,-6.5800,-10.0100,999.1372,8.5039,3.5145,3.3915,1590579473,N
94,2407839,8.2600,4.6469,2.5579,26.3900,1.8200,-1.5400,999.1341,8.4705,3.8109,3.1461,1590579473,N
93,2404821,8.1835,5.4245,2.5436,51.8000,-2.3800,2.0300,999.1317,8.3854,4.2244,2.8303,1590579473,N
93,2397203,8.4012,5.1039,2.1200,11.9000,-7.4900,2.0300,999.1304,8.3945,4.3612,2.5851,1590579473,N
93,2391624,8.1882,5.2044,1.6367,-0.9100,1.6800,5.0400,999.1286,8.3850,4.4807,2.4051,1590579473,N
93,2382560,8.3868,4.7761,1.7922,-2.5200,2.5200,5.7400,999.1272,8.4064,4.4963,2.2992,1590579473,N
93,2375398,8.4658,4.7043,2.0578,0.4900,1.8200,2.6600,999.1262,8.4055,4.5204,2.2548,1590579473,N
93,2371290,8.3677,4.8718,1.9908,4.1300,1.4700,2.0300,999.1251,8.3817,4.5936,2.1946,1590579473,N
93,2366500,8.4658,4.8263,2.0770,-1.4700,0.9800,1.3300,999.1239,8.3759,4.6137,2.1745,1590579474,N
94,2362554,8.4323,4.8000,1.9860,-3.2200,1.6800,2.0300,999.1227,8.3776,4.6211,2.1522,1590579474,N
94,2357991,8.4084,4.7737,2.0722,-2.5200,1.4700,1.4700,999.1220,8.3737,4.6296,2.1491,1590579474,N
94,2347776,8.3844,4.6756,2.1775,-0.7000,1.2600,0.9100,999.1219,8.3684,4.6326,2.1630,1590579474,N
94,2340181,8.4275,4.7067,2.1655,0.4200,-0.6300,0.0700,999.1215,8.3684,4.6369,2.1540,1590579474,N
94,2335139,8.4634,4.6875,2.1344,1.2600,-1.2600,-0.4200,999.1210,8.3725,4.6389,2.1336,1590579474,N
94,2330836,8.4491,4.7809,2.0722,2.2400,-0.7000,-0.2800,999.1205,8.3657,4.6642,2.1049,1590579474,N
94,2327596,8.3725,4.7880,2.0889,0.7000,-0.2800,0.2100,999.1197,8.3578,4.6829,2.0948,1590579474,N
95,2322306,8.4084,4.7330,2.0913,0.9100,-0.1400,0.5600,999.1190,8.3581,4.6858,2.0869,1590579474,N
94,2313772,8.4467,4.7378,1.9310,1.5400,0.0700,0.3500,999.1182,8.3624,4.6953,2.0483,1590579474,N
95,2308788,8.3964,4.7426,2.1320,6.8600,1.4000,0.0700,999.1171,8.3363,4.7406,2.0503,1590579475,N
95,2305706,8.4538,4.8574,1.9765,1.4700,-0.1400,-0.2800,999.1158,8.3320,4.7590,2.0247,1590579475,N
95,2302814,8.4251,4.7569,1.9836,0.3500,-0.1400,0.4200,999.1141,8.3406,4.7496,2.0112,1590579475,N
95,2300788,8.4227,4.7617,1.9932,0.9800,-0.1400,0.2800,999.1127,8.3447,4.7470,2.0004,1590579475,N
95,2293985,8.3821,4.8359,2.0913,0.0700,-0.0700,-0.0700,999.1123,8.3363,4.7561,2.0140,1590579475,N
95,2289792,8.3749,4.7665,2.0602,0.7700,0.2800,0.5600,999.1123,8.3354,4.7550,2.0202,1590579475,N
96,2288322,8.3821,4.7019,2.0722,0.5600,0.3500,0.3500,999.1125,8.3392,4.7442,2.0299,1590579475,N
96,2287665,8.4108,4.7880,2.0554,1.0500,-0.1400,0.2800,999.1128,8.3386,4.7467,2.0268,1590579475,N
96,2287988,8.3964,4.8191,2.0554,0.4200,-0.2100,0.2800,999.1140,8.3364,4.7510,2.0257,1590579475,N
96,2286400,8.3916,4.7569,2.0818,0.3500,-0.7700,-0.1400,999.1151,8.3398,4.7439,2.0281,1590579475,N
96,2282105,8.3940,4.7809,2.0124,2.6600,-0.1400,0.1400,999.1162,8.3361,4.7568,2.0131,1590579476,N
96,2280697,8.4754,4.7258,1.9884,1.7500,-0.9100,0.1400,999.1161,8.3490,4.7429,1.9924,1590579476,N
97,2280446,8.4323,4.8215,2.0052,0.7000,-0.7000,0.4900,999.1157,8.3513,4.7429,1.9829,1590579476,N
97,2280856,8.4371,4.7976,1.9502,1.7500,-1.1900,0.0700,999.1158,8.3556,4.7451,1.9590,1590579476,N
97,2282428,8.5184,4.7545,1.9813,3.0800,-0.7700,0.1400,999.1162,8.3611,4.7421,1.9426,1590579476,N
97,2281630,8.4419,4.8287,1.8975,4.9700,-0.1400,1.1200,999.1162,8.3547,4.7658,1.9123,1590579476,N
97,2279634,8.4778,4.8072,1.9358,1.8900,-2.8000,1.1900,999.1162,8.3740,4.7424,1.8856,1590579476,N
97,2279786,8.4897,4.7330,1.8281,3.0100,-2.8700,-0.4900,999.1166,8.3898,4.7314,1.8425,1590579476,N
97,2280678,8.5017,4.9101,1.6917,6.0200,-2.8700,-2.3100,999.1165,8.3774,4.7804,1.7710,1590579476,N
97,2282094,8.4299,5.0249,1.4548,3.3600,-0.9100,-1.5400,999.1171,8.3595,4.8409,1.6895,1590579476,N
98,2284107,8.4012,4.9579,1.7515,0.9100,0.4200,-0.9800,999.1181,8.3406,4.8701,1.6991,1590579477,N
98,2282356,8.3653,4.9460,1.7204,0.7700,-0.7000,-0.9100,999.1190,8.3329,4.8848,1.6948,1590579477,N
98,2279935,8.4084,5.0082,1.5553,2.8000,-0.2800,-1.6100,999.1197,8.3170,4.9256,1.6544,1590579477,N
98,2279711,8.3462,4.9914,1.5529,-1.6100,0.6300,-2.1000,999.1195,8.3067,4.9464,1.6438,1590579477,N
98,2279803,8.3486,4.9819,1.7228,-2.3100,0.2800,-0.4900,999.1198,8.3063,4.9393,1.6668,1590579477,N
98,2280384,8.2720,5.0154,1.7324,-0.5600,0.6300,2.1000,999.1194,8.3035,4.9384,1.6835,1590579477,N
98,2281203,8.4203,5.0417,1.6678,0.3500,1.8200,1.8200,999.1185,8.2981,4.9469,1.6852,1590579477,N
98,2279165,8.4419,4.9603,1.6558,0.9100,-0.3500,1.4000,999.1182,8.3120,4.9292,1.6688,1590579477,N
98,2277773,8.3773,4.9125,1.8425,9.3100,-5.7400,-5.0400,999.1181,8.2974,4.9645,1.6366,1590579477,N
99,2279736,8.2624,5.3599,1.3184,2.6600,-0.3500,-1.2600,999.1173,8.2599,5.0507,1.5603,1590579477,N
98,2281153,8.5567,5.0824,1.4548,-14.9800,0.2800,3.7800,999.1174,8.3389,4.9135,1.5779,1590579478,N
99,2283145,8.4275,4.7474,1.5769,-6.3000,5.3900,5.8800,999.1169,8.3691,4.8449,1.6294,1590579478,N
99,2285104,8.4108,4.6851,1.9860,0.1400,0.4200,1.6800,999.1172,8.3796,4.8020,1.7009,1590579478,N
99,2283579,8.4299,4.8790,1.7635,3.9200,-2.1700,-0.4200,999.1172,8.3749,4.8163,1.6836,1590579478,N
99,2283288,8.4491,4.9077,1.5936,4.7600,-1.3300,-0.4200,999.1172,8.3671,4.8451,1.6393,1590579478,N
99,2285251,8.5328,4.8455,1.5266,3.8500,0.7000,0.9100,999.1166,8.3676,4.8555,1.6052,1590579478,N
99,2287352,8.4849,4.8287,1.7300,2.8000,1.5400,1.2600,999.1161,8.3612,4.8592,1.6274,1590579478,N
99,2289403,8.4443,4.7378,1.6726,-8.4000,-0.1400,-0.5600,999.1152,8.3964,4.7867,1.6609,1590579478,N
99,2290775,8.4969,4.9196,2.0243,-11.2700,-0.3500,-3.5000,999.1147,8.3933,4.7567,1.7596,1590579478,N
99,2289083,8.3031,4.9196,1.9502,-1.8200,-4.6900,-3.9200,999.1139,8.3818,4.7720,1.7732,1590579478,N
99,2289008,8.3629,4.9938,1.6223,5.7400,-3.8500,-1.1200,999.1137,8.3722,4.8161,1.6976,1590579479,N
100,2290184,8.4562,4.9771,1.6678,5.8100,-1.6100,0.6300,999.1130,8.3624,4.8471,1.6572,1590579479,N
100,2291605,8.4275,4.8814,1.7420,0.4200,-0.6300,-1.6100,999.1122,8.3558,4.8552,1.6669,1590579479,N
100,2293166,8.2911,4.9627,1.6726,0.4200,-0.1400,-0.4200,999.1118,8.3408,4.8810,1.6663,1590579479,N
100,2293652,8.3773,4.9484,1.6678,0.4200,0.2100,0.4200,999.1115,8.3367,4.8888,1.6642,1590579479,N
100,2291729,8.3988,4.9914,1.6415,-1.4000,1.6100,0.9800,999.1115,8.3307,4.8967,1.6709,1590579479,N
100,2291369,8.4060,4.9029,1.7013,1.2600,0.6300,0.5600,999.1118,8.3287,4.8989,1.6744,1590579479,N
100,2292075,8.4347,4.8646,1.7707,1.6100,0.4900,0.2100,999.1120,8.3283,4.8947,1.6886,1590579479,N
100,2293260,8.3629,4.9316,1.7252,2.0300,-0.4900,-0.1400,999.1119,8.3227,4.9056,1.6845,1590579479,N
100,2294813,8.4419,5.0058,1.6678,1.4000,-0.3500,0.2100,999.1121,8.3206,4.9145,1.6693,1590579479,N
100,2294872,8.3892,4.9340,1.6391,0.1400,0.0700,0.3500,999.1121,8.3244,4.9109,1.6609,1590579480,N
100,2292213,8.3510,4.9149,1.6798,0.2100,0.4900,0.2100,999.1127,8.3223,4.9125,1.6662,1590579480,N
101,2292288,8.4084,4.9866,1.6510,0.2800,0.4900,0.2800,999.1124,8.3187,4.9201,1.6618,1590579480,N
101,2294877,8.4251,4.9173,1.7922,0.5600,-0.5600,-0.1400,999.1132,8.3225,4.9080,1.6784,1590579480,N
101,2297252,8.3486,4.9627,1.7085,1.5400,-1.3300,-0.7000,999.1136,8.3191,4.9170,1.6693,1590579480,N
101,2299563,8.4156,4.9340,1.5697,2.6600,-0.7700,-0.4900,999.1134,8.3205,4.9264,1.6338,1590579480,N
101,2300028,8.4084,5.0393,1.5912,0.6300,-0.4200,-0.4900,999.1129,8.3156,4.9404,1.6169,1590579480,N
101,2297168,8.3701,4.9555,1.5482,0.3500,-0.3500,0.1400,999.1129,8.3210,4.9372,1.5982,1590579480,N
101,2296256,8.3773,4.9388,1.5529,0.1400,0.1400,0.4900,999.1132,8.3262,4.9318,1.5880,1590579480,N
101,2296837,8.3916,4.9819,1.5769,0.4900,-0.0700,0.2800,999.1132,8.3262,4.9341,1.5810,1590579480,N
101,2297817,8.4156,4.9484,1.6630,0.4900,-0.2100,0.2100,999.1134,8.3286,4.9268,1.5911,1590579481,N
101,2299326,8.3916,4.9627,1.5482,0.4900,-0.4200,-0.2100,999.1135,8.3304,4.9285,1.5762,1590579481,N
101,2299817,8.4275,4.9531,1.6558,0.7000,-0.4900,-0.2100,999.1129,8.3316,4.9242,1.5832,1590579481,N
101,2297162,8.3797,4.9842,1.5721,0.0700,-0.2800,0.2100,999.1125,8.3321,4.9256,1.5765,1590579481,N
101,2296335,8.3821,4.9436,1.5458,0.1400,-0.2100,0.6300,999.1128,8.3380,4.9187,1.5665,1590579481,N
101,2297129,8.3342,4.9723,1.6008,1.4000,-0.4200,0.1400,999.1135,8.3314,4.9303,1.5651,1590579481,N
101,2298111,8.3892,4.9029,1.5817,1.3300,-0.2100,0.1400,999.1141,8.3345,4.9263,1.5616,1590579481,N
102,2299707,8.3462,4.9747,1.5793,0.2100,0.1400,0.3500,999.1151,8.3306,4.9321,1.5639,1590579481,N
101,2300410,8.4060,4.9436,1.6367,0.2100,-0.0700,-0.0700,999.1164,8.3314,4.9274,1.5747,1590579481,N
101,2297411,8.3844,4.9842,1.6295,0.1400,-0.5600,-0.1400,999.1176,8.3305,4.9275,1.5788,1590579481,N
102,2296138,8.3868,5.0034,1.5984,-0.5600,-0.5600,0.2100,999.1183,8.3330,4.9237,1.5776,1590579482,N
102,2296689,8.4203,4.9508,1.5960,-0.0700,-0.5600,0.2800,999.1189,8.3401,4.9126,1.5745,1590579482,N
102,2297600,8.4323,4.9627,1.5888,-0.2100,-0.0700,0.1400,999.1194,8.3423,4.9090,1.5741,1590579482,N
102,2299065,8.4060,4.9603,1.5769,0.6300,-0.4200,-0.0700,999.1200,8.3419,4.9119,1.5673,1590579482,N
102,2300493,8.3988,4.9077,1.5697,0.5600,-0.4200,-0.0700,999.1204,8.3460,4.9067,1.5617,1590579482,N
102,2297665,8.4156,4.9579,1.6199,-0.4900,-0.4900,-0.1400,999.1210,8.3479,4.9013,1.5686,1590579482,N
102,2296115,8.4108,4.9842,1.6199,-0.5600,-0.4900,0.2100,999.1212,8.3487,4.8983,1.5737,1590579482,N
102,2296380,8.3844,4.9675,1.6080,0.2800,0.0700,0.2100,999.1209,8.3435,4.9058,1.5777,1590579482,N
101,2296786,8.3988,4.9436,1.5721,0.3500,-0.0700,0.3500,999.1201,8.3446,4.9056,1.5727,1590579482,N
101,2297720,8.3725,4.9484,1.6247,0.5600,-0.0700,0.3500,999.1194,8.3415,4.9089,1.5788,1590579482,N
101,2298896,8.3868,4.8933,1.6008,0.3500,-0.3500,0.1400,999.1182,8.3466,4.9004,1.5785,1590579483,N
101,2296009,8.4251,4.9579,1.6223,0.9800,-0.3500,-0.4200,999.1178,8.3422,4.9077,1.5788,1590579483,N
102,2293911,8.4060,4.9268,1.6319,0.1400,-0.2800,0.1400,999.1177,8.3446,4.9017,1.5846,1590579483,N
101,2293885,8.4443,4.9173,1.5936,0.1400,-0.2800,0.2800,999.1182,8.3512,4.8917,1.5808,1590579483,N
101,2294306,8.3940,4.9005,1.6056,0.1400,-0.2800,0.2100,999.1183,8.3545,4.8858,1.5818,1590579483,N
101,2295665,8.4251,4.9173,1.6223,2.3100,-0.8400,-0.3500,999.1187,8.3515,4.8932,1.5746,1590579483,N
101,2297124,8.3773,4.9268,1.5840,0.1400,-0.7000,-0.1400,999.1193,8.3532,4.8917,1.5701,1590579483,N
101,2294874,8.3844,4.9627,1.5673,0.3500,-0.7000,-0.0700,999.1192,8.3522,4.8962,1.5618,1590579483,N
101,2293124,8.4036,4.9244,1.5936,0.3500,0.4200,0.2800,999.1189,8.3493,4.8992,1.5677,1590579483,N
101,2293332,8.3964,4.9173,1.6367,-0.7700,0.0700,0.2100,999.1189,8.3513,4.8912,1.5822,1590579483,N
101,2293808,8.4036,4.9436,1.6487,0.2100,0.0700,0.2100,999.1187,8.3478,4.8938,1.5924,1590579484,N
101,2295035,8.3988,4.9460,1.6917,0.6300,-0.3500,0.2800,999.1183,8.3451,4.8944,1.6048,1590579484,N
101,2296616,8.3246,4.9388,1.6343,-0.7000,0.0700,0.2100,999.1174,8.3419,4.8971,1.6128,1590579484,N
101,2294528,8.3797,4.9005,1.6487,0.7700,-0.3500,-0.0700,999.1171,8.3424,4.8960,1.6139,1590579484,N
101,2292543,8.4419,4.9508,1.6271,0.2100,-0.2100,-0.0700,999.1172,8.3432,4.8955,1.6108,1590579484,N
101,2292622,8.4179,4.9292,1.5625,-0.3500,-0.2800,-0.0700,999.1171,8.3483,4.8911,1.5981,1590579484,N
101,2293225,8.4299,4.9173,1.6152,-0.3500,-0.5600,0.0700,999.1169,8.3550,4.8804,1.5959,1590579484,N
101,2294526,8.4275,4.9531,1.6247,0.0700,-0.5600,-0.1400,999.1177,8.3547,4.8813,1.5943,1590579484,N
101,2296230,8.4347,4.9723,1.6223,-0.2100,-0.4900,0.2100,999.1177,8.3553,4.8806,1.5932,1590579484,N
101,2294860,8.4371,4.9412,1.6582,0.6300,-0.4200,0.2100,999.1174,8.3547,4.8803,1.5975,1590579484,N
101,2292749,8.3390,4.8718,1.6702,0.0700,-0.6300,-0.1400,999.1179,8.3556,4.8754,1.6078,1590579485,N
101,2292765,8.4179,4.9531,1.5601,-0.0700,-0.6300,-0.1400,999.1182,8.3574,4.8776,1.5916,1590579485,N
100,2293271,8.3438,4.9603,1.6032,-0.0700,-0.5600,0.7700,999.1190,8.3567,4.8797,1.5887,1590579485,N
101,2294235,8.3821,4.8526,1.6630,-0.2800,-1.1900,2.0300,999.1192,8.3760,4.8448,1.5939,1590579485,N
100,2295769,8.5400,4.7713,1.6080,2.1000,-2.1700,0.7700,999.1196,8.4019,4.8073,1.5713,1590579485,N
100,2294250,8.5041,4.8072,1.4955,3.8500,-3.7800,-1.2600,999.1196,8.4167,4.7987,1.5171,1590579485,N
100,2291999,8.2768,5.1446,1.2060,1.6800,-1.1200,-0.9800,999.1196,8.3885,4.8704,1.4433,1590579485,N
100,2291857,8.4012,4.8622,1.5625,-2.5200,2.1000,2.2400,999.1198,8.3908,4.8532,1.4867,1590579485,N
100,2292302,8.5567,4.8790,1.3711,-1.2600,2.3100,0.5600,999.1207,8.3914,4.8546,1.4790,1590579485,N
100,2293191,8.4586,4.8574,1.6415,-3.9900,0.2800,0.9800,999.1213,8.4052,4.8173,1.5218,1590579485,N
100,2294382,8.4036,4.9005,1.5673,1.8200,-0.7000,-0.5600,999.1215,8.3935,4.8385,1.5196,1590579486,N
100,2292325,8.4036,4.9412,1.4189,-1.9600,0.3500,0.7700,999.1213,8.3954,4.8394,1.5059,1590579486,N
100,2289956,8.4132,4.7928,1.7420,0.9100,0.0700,0.3500,999.1201,8.3924,4.8308,1.5495,1590579486,N
100,2289886,8.4443,4.9053,1.5912,1.4700,-2.0300,0.4200,999.1185,8.3985,4.8245,1.5362,1590579486,N
100,2290212,8.4538,4.8598,1.5817,2.4500,-3.2200,0.7700,999.1163,8.4144,4.8042,1.5127,1590579486,N
100,2291049,8.5376,4.8455,1.3926,4.3400,-2.3100,0.5600,999.1151,8.4252,4.8028,1.4561,1590579486,N
100,2292719,8.6022,4.8503,1.3208,2.4500,-0.7000,-0.6300,999.1141,8.4278,4.8111,1.4132,1590579486,N
100,2290705,8.3677,4.8981,1.3854,-1.9600,0.7700,0.0700,999.1132,8.4194,4.8240,1.4191,1590579486,N
100,2288876,8.4467,4.7880,1.5003,0.2100,-0.3500,-0.0700,999.1118,8.4232,4.8135,1.4319,1590579486,N
100,2289228,8.6237,4.8814,1.3854,-0.3500,1.2600,-2.8700,999.1108,8.4084,4.8402,1.4290,1590579486,N
100,2289992,8.3270,5.0871,1.3208,-3.2200,2.1700,-3.6400,999.1106,8.3653,4.9129,1.4340,1590579487,N
99,2291484,8.3821,5.0512,1.6008,-6.9300,4.2700,1.4700,999.1103,8.3502,4.9147,1.5132,1590579487,N
100,2293973,8.3581,4.7665,1.8257,-1.8200,2.5900,2.4500,999.1099,8.3555,4.8789,1.5976,1590579487,N
100,2293070,8.4849,4.8024,1.6845,5.4600,-0.5600,-2.4500,999.1096,8.3429,4.9018,1.5935,1590579487,N
99,2292060,8.4203,5.1111,1.5170,-0.2100,0.4200,-1.4000,999.1098,8.3231,4.9403,1.5781,1590579487,N
99,2292371,8.3533,5.0297,1.7683,-2.5900,0.8400,2.3800,999.1104,8.3255,4.9213,1.6242,1590579487,N
99,2296823,8.5424,5.6877,0.9667,-14.9100,11.4100,8.8200,999.1113,8.3112,4.9524,1.6026,1590579487,N
99,2307990,8.9587,7.3244,0.5791,-14.5600,59.5000,61.1800,999.1129,8.2320,4.9732,1.9159,1590579487,N
99,2313877,6.9105,3.3165,1.9860,-51.6600,81.2000,148.3300,999.1138,8.7030,3.7027,2.5921,1590579487,N
99,2307298,6.1878,0.7394,4.5248,-7.7700,126.2800,170.1000,999.1155,8.8498,2.2750,3.5603,1590579487,N
99,2308784,4.6899,-1.4620,3.8883,-11.8300,174.8600,229.8800,999.1171,8.7010,0.0992,4.5225,1590579488,N
99,2321477,1.0648,-5.1302,10.9496,-34.7900,134.3300,103.2500,999.1182,7.6900,-1.2073,5.9647,1590579488,N
99,2339663,-0.8112,-3.6443,11.6698,62.7900,106.4700,61.4600,999.1190,5.7906,-1.2074,7.8219,1590579488,N
100,2352425,0.6317,-3.4768,9.5186,33.2500,30.7300,42.9800,999.1199,4.2794,-1.5720,8.6825,1590579488,N
100,2360064,0.1244,-3.0245,10.2724,-14.4900,30.0300,32.9700,999.1208,2.3106,-1.2343,9.4503,1590579488,N
100,2366805,-1.1342,-2.3139,9.3440,-10.3600,6.8600,31.5000,999.1212,0.5636,-0.4676,9.7793,1590579488,N
100,2375837,-1.6606,-2.5747,9.7603,18.5500,12.6000,30.8700,999.1221,-0.6294,-9.0559,3.7100,1590579488,N
100,2386336,-1.2419,-3.8955,9.5115,-16.1700,2.8700,10.9200,999.1230,-1.2010,-5.6909,7.8956,1590579488,N
100,2396114,-1.7372,-3.3260,9.2865,-16.8700,2.4500,-0.8400,999.1243,-0.6149,-1.9956,9.5817,1590579488,N
100,2404106,-1.9382,-2.6752,9.3200,-6.2300,-4.2000,5.0400,999.1257,-0.7915,-1.9582,9.5765,1590579488,N
100,2409994,-1.1007,-2.8977,9.3990,-0.8400,-6.9300,9.9400,999.1271,-0.7929,-1.9972,9.5683,1590579489,N
100,2413269,-1.6869,-2.8666,9.2172,8.7500,-0.1400,17.2900,999.1288,-0.9541,-2.0336,9.5459,1590579489,N
100,2417631,-1.6032,-3.1011,9.0473,6.2300,5.8800,14.7000,999.1304,-1.1360,-2.2150,9.4854,1590579489,N
100,2421560,-1.6726,-2.7661,9.5617,4.0600,3.0800,0.4900,999.1322,-1.2453,-2.2991,9.4517,1590579489,N
100,2424275,-1.6343,-2.6010,9.4181,8.7500,-1.1200,-10.4300,999.1342,-1.2742,-2.3000,9.4476,1590579489,N
100,2425732,-1.9765,-2.0459,9.6550,6.7900,-0.1400,-0.0700,999.1354,-1.3776,-2.1629,9.4654,1590579489,N
100,2426407,-1.6606,-2.3593,9.0927,-5.3900,0.2800,-1.0500,999.1370,-1.4530,-2.2666,9.4298,1590579489,N
100,2428758,-1.8951,-2.2756,9.4828,7.2800,8.1200,-0.4200,999.1385,-1.5815,-2.2495,9.4132,1590579489,N
100,2431897,-2.0387,-2.8475,8.8893,28.0700,10.0100,-13.6500,999.1406,-1.6755,-2.2458,9.3978,1590579489,N
100,2434732,-2.1727,-0.6173,10.9185,16.1000,0.2100,-9.8700,999.1429,-1.6495,-1.8599,9.4863,1590579489,N
100,2436601,-2.2349,-1.2156,9.2985,-2.1700,2.2400,0.9800,999.1452,-1.7798,-1.7389,9.4857,1590579490,N
100,2438034,-2.1176,-1.6415,9.5258,-4.9700,-1.6800,1.2600,999.1479,-1.8400,-1.7440,9.4733,1590579490,N
100,2437882,-2.1894,-1.3376,9.5306,-5.9500,0.8400,2.9400,999.1498,-1.9365,-1.7032,9.4615,1590579490,N
100,2438822,-2.1559,-1.5099,9.6670,-13.1600,-2.2400,5.3200,999.1513,-2.0187,-1.7519,9.4354,1590579490,N
101,2440918,-2.0411,-1.6008,9.5689,-2.2400,-0.3500,-0.0700,999.1521,-2.0265,-1.7358,9.4367,1590579490,N
100,2442241,-2.0770,-2.1129,9.2674,-7.5600,-6.9300,0.6300,999.1527,-2.0181,-1.8521,9.4163,1590579490,N
100,2443495,-1.9645,-1.5458,9.2530,0.1400,-2.6600,-0.2800,999.1536,-1.9939,-1.7876,9.4339,1590579490,N
101,2444751,-1.9908,-1.8209,9.7340,-2.1000,0.1400,0.9800,999.1548,-1.9942,-1.8006,9.4314,1590579490,N
101,2442023,-1.9621,-1.7228,9.5474,-1.5400,-7.7000,-1.5400,999.1558,-1.9215,-1.7700,9.4523,1590579490,N
101,2442125,-1.9645,-1.5553,9.4660,-0.9800,-0.3500,-0.3500,999.1572,-1.9328,-1.7355,9.4563,1590579490,N
101,2444846,-1.8760,-2.0195,9.5498,-1.1200,1.8900,5.1100,999.1584,-1.9475,-1.7934,9.4425,1590579491,N
101,2447137,-1.8999,-1.9119,9.4923,2.8000,-1.3300,5.1100,999.1591,-1.9207,-1.7768,9.4511,1590579491,N
101,2449075,-2.0076,-1.4620,9.6933,-8.7500,-2.0300,2.2400,999.1595,-1.9608,-1.7723,9.4438,1590579491,N
101,2450270,-1.9525,-1.9358,9.4349,1.1900,0.4900,-0.2800,999.1596,-1.9561,-1.7948,9.4405,1590579491,N
101,2447768,-2.0195,-1.9430,9.4971,-3.7800,-0.9100,0.4900,999.1593,-1.9750,-1.8484,9.4262,1590579491,N
101,2448179,-1.9525,-1.9884,9.4804,-1.9600,0.4900,1.3300,999.1591,-1.9825,-1.8889,9.4166,1590579491,N
101,2450558,-1.9023,-1.8425,9.5569,-4.6200,-4.0600,0.9800,999.1595,-1.9487,-1.8984,9.4217,1590579491,N
101,2451087,-1.8425,-2.1799,9.5617,0.9100,-0.7000,0.9100,999.1592,-1.9121,-1.9327,9.4222,1590579491,N
102,2451714,-1.9621,-1.8927,9.3344,3.7800,1.4700,-0.6300,999.1605,-1.9212,-1.9023,9.4266,1590579491,N
101,2452858,-1.8616,-2.1966,9.6048,-1.0500,1.9600,0.6300,999.1604,-1.9237,-1.9661,9.4130,1590579491,N
102,2448834,-1.9358,-2.0387,9.3583,-3.6400,0.4900,1.4700,999.1611,-1.9489,-2.0125,9.3980,1590579492,N
102,2444883,-1.9693,-2.2277,9.4516,0.8400,2.5900,0.7700,999.1616,-1.9697,-2.0522,9.3850,1590579492,N
102,2446040,-2.0052,-2.1440,9.4875,-2.1000,-1.8900,0.6300,999.1617,-1.9648,-2.0740,9.3813,1590579492,N
102,2449200,-2.0052,-2.0195,9.3990,0.2100,-0.5600,-0.2800,999.1616,-1.9663,-2.0590,9.3843,1590579492,N
102,2452378,-2.0028,-2.1655,9.4899,-0.9800,-0.3500,0.2800,999.1621,-1.9696,-2.0809,9.3787,1590579492,N
102,2455190,-2.0148,-2.1488,9.3559,0.7700,-0.2800,-0.0700,999.1620,-1.9732,-2.0866,9.3767,1590579492,N
102,2452330,-2.0674,-2.2469,9.5498,0.4200,0.0700,0.0700,999.1621,-1.9823,-2.1052,9.3706,1590579492,N
102,2444135,-2.0578,-2.1559,9.4636,-1.0500,-0.6300,-0.0700,999.1622,-1.9911,-2.1169,9.3661,1590579492,N
102,2442171,-1.8568,-2.1296,9.4708,3.2200,-2.3100,0.8400,999.1616,-1.9308,-2.0773,9.3876,1590579492,N
102,2442174,-1.8927,-2.2397,9.4014,5.7400,-0.9800,-0.9100,999.1611,-1.8907,-2.0557,9.4005,1590579492,N
102,2446238,-2.0459,-1.7850,9.6215,-0.5600,1.5400,0.8400,999.1620,-1.9318,-2.0032,9.4035,1590579493,N
102,2453215,-1.9478,-2.3354,9.2459,-4.6200,-1.4700,1.5400,999.1633,-1.9473,-2.1024,9.3786,1590579493,N
102,2457047,-1.9836,-2.1416,9.5043,-4.5500,-1.7500,0.9100,999.1647,-1.9528,-2.1341,9.3703,1590579493,N
102,2454669,-1.9884,-2.1392,9.3799,0.5600,-0.4200,0.2800,999.1657,-1.9541,-2.1272,9.3716,1590579493,N
102,2456040,-2.0100,-2.2349,9.4397,-0.2800,-0.0700,0.4900,999.1658,-1.9626,-2.1452,9.3657,1590579493,N
102,2459018,-2.0411,-2.3617,9.5785,-1.6800,-0.8400,0.2100,999.1657,-1.9671,-2.1858,9.3554,1590579493,N
102,2460081,-1.8544,-2.3856,8.9061,3.7100,-3.7800,0.7700,999.1656,-1.9177,-2.1944,9.3636,1590579493,N
102,2462981,-2.1153,-1.8425,10.8156,14.2800,6.5800,-0.8400,999.1656,-1.9167,-2.0226,9.4024,1590579493,N
101,2465417,-2.1009,-2.0506,9.0042,5.6000,-0.3500,-0.7000,999.1654,-1.9419,-1.9953,9.4031,1590579493,N
101,2464169,-2.0602,-1.9717,9.2818,5.5300,-0.4900,0.2100,999.1647,-1.9436,-1.9443,9.4134,1590579493,N
101,2464285,-2.0937,-1.8329,9.7005,-0.4900,-1.1200,-0.4200,999.1636,-1.9527,-1.9107,9.4184,1590579494,N
101,2465029,-1.9430,-0.6604,9.5067,38.9900,-7.2800,-3.7100,999.1631,-1.7141,-1.2782,9.5707,1590579494,N
101,2468653,-2.4000,-0.6389,9.8417,-5.1800,13.6500,0.7000,999.1633,-1.9608,-1.2285,9.5298,1590579494,N
101,2470437,-1.7731,-2.5986,9.2315,-16.8000,-1.1900,9.8700,999.1635,-2.0583,-1.6201,9.4504,1590579494,N
101,2470945,-2.1248,-1.1151,9.4828,-5.2500,-1.3300,0.9100,999.1636,-2.0952,-1.5564,9.4529,1590579494,N
101,2471047,-1.9860,-1.9334,9.6790,-6.0900,0.1400,0.4200,999.1647,-2.0976,-1.6728,9.4325,1590579494,N
101,2467310,-2.0004,-1.5864,9.5282,-26.3200,-9.5900,3.2200,999.1655,-2.1352,-1.8435,9.3922,1590579494,N
101,2464743,-1.9358,-2.4646,9.3751,1.3300,1.1200,-0.0700,999.1653,-2.0932,-1.9456,9.3810,1590579494,N
100,2464163,-1.9525,-2.0028,9.3583,4.4100,2.1700,-0.0700,999.1657,-2.0629,-1.9275,9.3915,1590579494,N
101,2465821,-2.0148,-1.9860,9.5761,3.9900,1.4000,-0.4900,999.1661,-2.0386,-1.9034,9.4017,1590579494,N
101,2468608,-1.9932,-2.1224,9.2602,-15.7500,-4.8300,4.1300,999.1667,-2.0681,-2.0594,9.3623,1590579495,N
100,2470759,-1.9406,-2.4503,9.3655,2.5900,1.0500,4.1300,999.1675,-2.0464,-2.1040,9.3571,1590579495,N
100,2468690,-2.0530,-2.2014,9.4828,2.8700,1.6800,0.2100,999.1677,-2.0446,-2.0982,9.3588,1590579495,N
100,2468550,-2.0171,-2.1296,9.5545,0.8400,0.2100,0.2100,999.1677,-2.0301,-2.0896,9.3639,1590579495,N
100,2470398,-2.0004,-2.2421,9.2315,-0.4200,-0.2800,0.4900,999.1674,-2.0286,-2.1253,9.3562,1590579495,N
100,2471583,-2.0195,-2.1751,9.4325,-0.5600,-0.4900,0.0700,999.1674,-2.0214,-2.1342,9.3557,1590579495,N
100,2472422,-2.0530,-2.1894,9.4014,1.6100,0.1400,0.7700,999.1669,-2.0217,-2.1277,9.3571,1590579495,N
100,2472735,-2.0363,-2.1176,9.4875,1.1900,0.6300,0.1400,999.1652,-2.0206,-2.1125,9.3608,1590579495,N
100,2468021,-2.0339,-2.2038,9.3942,1.7500,-0.1400,-0.2100,999.1644,-2.0129,-2.1131,9.3624,1590579495,N
100,2465020,-2.0435,-2.0315,9.3655,2.1000,0.7000,-0.2100,999.1645,-2.0169,-2.0824,9.3684,1590579495,N
100,2465435,-2.0722,-2.1057,9.4971,0.7700,-0.3500,-0.2100,999.1646,-2.0158,-2.0735,9.3706,1590579496,N
99,2466250,-2.0650,-2.0171,9.7843,4.5500,-2.4500,-1.1900,999.1655,-1.9690,-1.9996,9.3965,1590579496,N
100,2467228,-2.0076,-2.0171,9.3894,4.2700,0.9100,0.0700,999.1674,-1.9676,-1.9698,9.4031,1590579496,N
99,2468139,-2.0411,-2.0746,9.5043,-0.1400,-0.0700,0.0700,999.1686,-1.9769,-1.9861,9.3978,1590579496,N
99,2464434,-2.0004,-1.9932,9.5186,2.2400,0.5600,-0.1400,999.1689,-1.9724,-1.9658,9.4030,1590579496,N
99,2461235,-2.0339,-2.0411,9.5115,0.7700,0.3500,0.2100,999.1696,-1.9796,-1.9699,9.4006,1590579496,N
99,2461872,-2.0650,-2.0387,9.4421,-0.2800,-0.4900,-0.0700,999.1707,-1.9904,-1.9813,9.3959,1590579496,N
99,2462658,-2.0818,-2.0219,9.4708,0.4200,0.2800,-0.1400,999.1714,-2.0048,-1.9832,9.3924,1590579496,N
99,2463629,-2.0794,-2.0052,9.5067,-0.7000,-0.2800,0.1400,999.1710,-2.0149,-1.9870,9.3895,1590579496,N
99,2465087,-2.0602,-1.9765,9.4588,0.7700,-0.2100,-0.1400,999.1703,-2.0157,-1.9748,9.3919,1590579496,N
99,2461912,-2.0435,-2.0459,9.4947,0.2100,0.2100,0.2800,999.1700,-2.0179,-1.9826,9.3898,1590579497,N
99,2459509,-2.1272,-2.1248,9.5569,-3.9200,-0.9800,0.3500,999.1710,-2.0389,-2.0311,9.3749,1590579497,N
99,2460300,-2.0076,-1.9932,9.4469,2.3800,0.4900,-0.9100,999.1723,-2.0233,-2.0046,9.3839,1590579497,N
98,2461213,-2.0267,-1.9956,9.5354,-0.2100,-0.0700,-0.1400,999.1737,-2.0181,-1.9988,9.3863,1590579497,N
99,2463002,-1.9645,-1.9860,9.3918,1.9600,0.3500,0.5600,999.1741,-2.0039,-1.9802,9.3933,1590579497,N
98,2469498,-2.0650,-2.1894,9.4708,-0.3500,-0.6300,0.6300,999.1746,-2.0083,-2.0153,9.3849,1590579497,N
98,2469535,-2.0506,-2.0818,9.4851,-0.9800,-0.6300,0.4200,999.1743,-2.0112,-2.0287,9.3814,1590579497,N
98,2468575,-2.0770,-2.0148,9.3870,0.9800,-0.1400,0.2100,999.1737,-2.0189,-2.0160,9.3824,1590579497,N
98,2470105,-2.0722,-2.0865,9.4636,0.5600,0.2100,0.0700,999.1733,-2.0250,-2.0216,9.3799,1590579497,N
98,2471523,-2.0530,-2.0865,9.4875,0.4200,-0.4900,-0.2100,999.1727,-2.0193,-2.0243,9.3806,1590579497,N
98,2472862,-2.0841,-2.0363,9.4971,1.0500,-0.4900,-0.2100,999.1723,-2.0181,-2.0110,9.3837,1590579498,N
98,2474199,-2.0674,-2.0100,9.5091,-0.0700,-0.1400,-0.2800,999.1712,-2.0211,-2.0061,9.3841,1590579498,N
98,2471388,-2.0195,-2.0483,9.4229,1.6800,-0.1400,-0.2800,999.1696,-2.0105,-1.9982,9.3881,1590579498,N
98,2470421,-2.0459,-2.0363,9.4421,1.3300,0.3500,0.1400,999.1683,-2.0127,-1.9928,9.3887,1590579498,N
98,2472241,-2.0602,-2.0124,9.5163,-0.4900,-0.4900,0.1400,999.1671,-2.0146,-1.9932,9.3882,1590579498,N
98,2473479,-2.0459,-1.9813,9.4134,0.9100,-0.0700,-0.1400,999.1669,-2.0151,-1.9818,9.3905,1590579498,N
98,2474642,-1.9813,-2.2995,9.3368,-26.5300,-11.0600,-1.4700,999.1672,-2.0144,-2.2278,9.3354,1590579498,N
98,2477561,-2.0363,-3.0748,9.2195,-14.8400,-9.8700,-5.2500,999.1674,-1.9766,-2.4700,9.2824,1590579498,N
98,2477752,-1.5793,-2.6680,9.8967,-16.5200,-18.4800,-16.1000,999.1669,-1.7329,-2.5577,9.3073,1590579498,N
98,2479228,-1.3089,-3.3165,9.8608,-21.8400,-31.7800,-21.4900,999.1666,-1.3698,-2.6795,9.3335,1590579498,N
98,2481503,-0.3206,-4.9819,10.0427,-55.0900,-61.4600,-44.3800,999.1663,-0.6924,-2.8346,9.3625,1590579499,N
98,2481924,0.8279,-5.0225,8.4993,-55.0900,-70.8400,-74.6200,999.1659,0.3220,-2.0713,9.5800,1590579499,N
98,2481403,2.4837,-5.6351,7.8915,-23.1000,-52.2900,-98.1400,999.1648,0.8763,-7.3558,6.4262,1590579499,N
98,2478428,3.7208,-5.1135,7.5063,31.2900,-48.3000,-107.9400,999.1634,2.2525,-5.7217,7.6393,1590579499,N
98,2463051,5.1685,-3.2471,7.1139,-30.3800,-43.8200,-115.2900,999.1622,3.6182,-5.0082,7.6156,1590579499,N
98,2443217,6.7502,-2.8570,6.1232,-176.4700,-32.4800,-108.5000,999.1608,5.1596,-5.3064,6.4336,1590579499,N
98,2428681,7.2479,-2.6704,4.7569,-141.1200,-6.4400,-101.7800,999.1589,6.3237,-5.0660,5.5242,1590579499,N
98,2416536,7.8245,-1.6606,4.7306,-45.0100,19.2500,-67.4800,999.1566,7.0179,-4.2179,5.3970,1590579499,N
98,2407366,8.0255,-2.2875,6.0108,-38.9900,28.8400,-29.0500,999.1536,7.2059,-3.8229,5.4434,1590579499,N
98,2400395,7.5852,-2.4909,6.1783,-26.6700,9.5200,-17.0800,999.1508,7.3412,-3.5503,5.4472,1590579500,N
98,2386719,7.8939,-2.5292,5.6447,-3.3600,-3.7800,-14.3500,999.1488,7.5515,-3.2269,5.3602,1590579500,N
99,2373977,8.2385,-1.3950,4.8096,-23.6600,2.7300,-7.4900,999.1461,7.8128,-2.8759,5.1826,1590579500,N
99,2365435,7.9657,-2.9958,5.7595,-18.6900,8.3300,-5.1800,999.1432,7.7830,-2.9245,5.2002,1590579500,N
99,2358211,7.6953,-2.4215,5.6088,8.6800,0.3500,-9.2400,999.1404,7.8280,-2.7198,5.2437,1590579500,N
99,2351836,8.1787,-2.8427,5.2642,7.8400,2.4500,-9.1000,999.1379,7.8774,-2.6340,5.2134,1590579500,N
99,2345829,7.9801,-1.9765,5.3049,6.1600,6.3700,-4.6900,999.1354,7.9053,-2.4487,5.2613,1590579500,N
99,2332053,7.9585,-2.3976,5.9773,10.0800,9.8000,-14.4900,999.1334,7.8741,-2.2974,5.3751,1590579500,N
99,2319901,7.7288,-1.5099,6.2501,26.6700,3.4300,-9.3800,999.1315,7.8252,-1.9754,5.5709,1590579500,N
99,2312837,7.8963,-1.1270,5.7332,7.7700,5.6700,2.8700,999.1300,7.7882,-1.7944,5.6828,1590579500,N
99,2307151,7.7384,-1.2251,6.2453,9.1700,5.2500,-2.8700,999.1287,7.7248,-1.6260,5.8184,1590579501,N
99,2304719,7.9059,-1.0887,5.8792,8.1900,-2.5900,4.2700,999.1270,7.6991,-1.5078,5.8839,1590579501,N
99,2303114,7.8461,-1.5003,6.0012,-8.6100,4.5500,-2.2400,999.1255,7.7317,-1.5224,5.8372,1590579501,N
99,2294077,7.5087,-1.2873,6.5850,8.1200,-2.0300,-1.8900,999.1241,7.6469,-1.4273,5.9715,1590579501,N
99,2286344,7.8126,-0.9069,6.1878,39.3400,-2.5200,-4.8300,999.1230,7.4430,-1.1301,6.2845,1590579501,N
99,2283043,7.7551,-0.2704,6.1567,55.3700,-3.5700,5.7400,999.1223,6.6511,-0.7130,7.1711,1590579501,N
99,2280091,7.8437,-0.2608,6.0586,2.5200,1.4000,-1.3300,999.1209,6.7060,-0.6060,7.1297,1590579501,N
99,2277758,7.8604,0.0598,6.2788,0.2100,-0.0700,-2.1000,999.1194,6.7100,-0.4618,7.1368,1590579501,N
99,2276478,7.9107,0.2130,5.8361,7.6300,-1.1900,4.0600,999.1191,6.2392,-0.2928,7.5602,1590579501,N
99,2272553,7.4824,-0.6245,6.4941,-5.8100,2.5200,14.3500,999.1199,6.5728,-0.4621,7.2633,1590579501,N
99,2268378,7.8532,-0.5264,5.9940,4.0600,0.4900,4.9000,999.1204,6.6524,-0.4816,7.1892,1590579502,N
99,2267131,7.9394,-0.1962,6.0586,-2.8000,-1.3300,-3.3600,999.1204,6.9226,-0.4277,6.9329,1590579502,N
99,2266284,7.6283,-0.2393,6.1639,-7.5600,0.8400,-1.4700,999.1196,7.2581,-0.4216,6.5812,1590579502,N
99,2265599,7.7647,-0.2991,6.3625,-4.5500,0.8400,-2.0300,999.1199,7.4703,-0.4056,6.3404,1590579502,N
99,2265367,7.8078,-0.3494,6.0969,6.9300,2.3800,-2.0300,999.1199,7.3728,-0.3532,6.4566,1590579502,N
99,2260617,7.6379,0.2034,6.3506,6.2300,5.6000,-0.8400,999.1195,6.9936,-0.2081,6.8715,1590579502,N
99,2256653,7.6044,-0.1268,6.4104,1.5400,3.2900,0.2800,999.1188,6.9203,-0.1854,6.9459,1590579502,N
99,2255480,7.5350,-0.1149,6.5300,5.3900,3.7800,1.8200,999.1187,6.4229,-0.1490,7.4091,1590579502,N
99,2254923,7.6403,-0.1723,6.5252,-2.4500,1.7500,0.9800,999.1189,6.7812,-0.1727,7.0821,1590579502,N
99,2255598,7.5230,-0.1292,6.4606,6.5100,-1.4700,-2.9400,999.1176,6.4273,-0.1153,7.4059,1590579502,N
99,2257064,7.6044,-0.1053,6.4678,-14.2800,2.0300,4.3400,999.1168,7.4107,-0.2048,6.4195,1590579503,N
99,2254511,7.3412,-0.7059,6.5659,-3.9900,0.5600,1.7500,999.1161,7.4409,-0.3304,6.3792,1590579503,N
99,2251511,7.5876,-0.3302,6.3386,3.5700,0.6300,-0.0700,999.1155,7.3493,-0.3141,6.4853,1590579503,N
99,2252591,7.6522,-0.7226,7.2431,-10.7100,5.3200,-19.3200,999.1147,8.0700,-0.3107,5.5632,1590579503,N
99,2257719,7.4847,-0.5240,6.7430,-18.9700,2.9400,-5.3900,999.1143,8.1960,-0.3841,5.3710,1590579503,N
100,2261174,7.2048,-0.3541,6.7310,1.1200,-1.2600,-3.8500,999.1140,8.1539,-0.3518,5.4369,1590579503,N
99,2262944,7.5996,-0.2967,6.5037,-4.2700,-1.1900,0.9100,999.1140,8.0945,-0.3624,5.5244,1590579503,N
99,2261673,7.5159,-0.4546,6.3817,-1.3300,-0.5600,-0.7700,999.1136,8.0147,-0.3825,5.6382,1590579503,N
100,2258251,7.4680,-0.4642,6.5850,0.7000,-0.2800,-0.0700,999.1129,7.8829,-0.3971,5.8200,1590579503,N
99,2257501,7.3890,-0.7968,6.5779,0.4200,-2.8000,1.0500,999.1122,7.7024,-0.4823,6.0506,1590579503,N
99,2258333,7.5781,-0.7418,6.5468,0.3500,1.8900,-4.9700,999.1117,7.7163,-0.5008,6.0314,1590579504,N
99,2259730,7.4034,-0.5910,6.7238,-3.2900,-0.4900,-3.4300,999.1110,7.7423,-0.5098,5.9973,1590579504,N
99,2261629,7.5446,-0.4283,6.4056,-1.4000,-2.3100,1.1900,999.1107,7.7075,-0.5053,6.0423,1590579504,N
99,2260974,7.5637,-0.7681,6.5204,-10.7100,0.2100,-0.6300,999.1102,7.7703,-0.5929,5.9532,1590579504,N
99,2257977,7.3795,-1.0265,6.6616,-9.1000,-0.1400,-3.9200,999.1110,7.7887,-0.6891,5.9188,1590579504,N
99,2258465,7.4824,-0.7178,6.5324,-0.9800,0.7700,-2.1700,999.1107,7.7511,-0.6850,5.9683,1590579504,N
99,2259974,7.5063,-0.7274,6.4654,-0.1400,-0.9100,-2.1700,999.1104,7.7281,-0.6801,5.9988,1590579504,N
100,2261112,7.5182,-0.7442,6.3960,3.2200,-0.6300,2.0300,999.1111,7.6082,-0.6916,6.1488,1590579504,N
99,2263348,7.4584,-0.7370,6.6353,1.6100,1.0500,1.4700,999.1119,7.4998,-0.7004,6.2795,1590579504,N
99,2263928,7.5182,-0.8423,6.5779,2.7300,-2.1000,0.8400,999.1123,7.4335,-0.7183,6.3559,1590579504,N
99,2261764,7.5182,-0.6173,6.3745,-1.4000,1.4700,1.1900,999.1113,7.4308,-0.7098,6.3600,1590579505,N
99,2261325,7.4369,-0.7872,6.6616,2.7300,-1.1200,2.8700,999.1104,7.3266,-0.7257,6.4780,1590579505,N
99,2262215,7.5230,-0.8016,6.3386,3.7800,-1.1200,0.9800,999.1096,7.2990,-0.7285,6.5088,1590579505,N
99,2263722,7.2766,-0.7657,6.7358,-1.3300,2.6600,1.6800,999.1091,7.2515,-0.7487,6.5594,1590579505,N
99,2265919,7.3603,-0.7681,6.6066,3.3600,-2.6600,1.1900,999.1088,7.2087,-0.7417,6.6072,1590579505,N
99,2267722,7.5709,-0.5910,6.4008,3.3600,-0.9100,2.5900,999.1085,7.1727,-0.7083,6.6499,1590579505,N
99,2266227,7.4130,-0.5695,6.6066,2.7300,0.3500,5.2500,999.1091,7.0664,-0.6924,6.7644,1590579505,N
99,2265886,7.5182,-0.8614,6.4415,-4.4800,1.6100,7.9800,999.1104,7.0942,-0.7861,6.7250,1590579505,N
99,2266862,7.3316,-1.2084,7.0421,6.1600,2.4500,4.3400,999.1112,6.9399,-0.8513,6.8763,1590579505,N
99,2268740,6.5372,-2.0602,3.6706,25.3400,-14.4200,-11.4100,999.1113,7.2003,-0.8856,6.5986,1590579505,N
99,2270565,7.5972,-0.0909,6.3888,21.3500,-4.6900,-0.7000,999.1116,6.8576,-0.6165,6.9831,1590579506,N
99,2272286,7.4106,-0.8638,6.5755,-0.6300,2.0300,-0.6300,999.1107,6.9910,-0.6665,6.8449,1590579506,N
99,2270757,7.2598,-0.5886,6.5827,5.6000,-2.5200,-1.6100,999.1103,6.9667,-0.6160,6.8743,1590579506,N
99,2270160,7.6140,-0.5862,6.3147,0.5600,0.5600,1.1200,999.1104,7.0468,-0.6138,6.7924,1590579506,N
99,2271177,7.4752,-0.9380,6.5420,0.7700,-0.9100,0.7700,999.1110,7.1198,-0.6769,6.7098,1590579506,N
99,2272635,7.5709,-0.6700,6.4223,2.1000,-0.7000,-0.4200,999.1124,7.1643,-0.6627,6.6636,1590579506,N
99,2273790,7.5278,-0.7274,6.4965,0.9100,-1.4000,0.0700,999.1130,7.2099,-0.6700,6.6135,1590579506,N
99,2275487,7.1258,-0.6365,6.8291,-10.6400,-6.2300,6.2300,999.1131,7.2844,-0.7425,6.5235,1590579506,N
99,2275323,7.6379,-0.6413,6.2931,13.5800,-17.0800,3.5700,999.1130,7.1750,-0.6771,6.6506,1590579506,N
99,2275817,7.8724,-0.7035,5.9653,0.5600,-13.8600,-0.0700,999.1123,7.3853,-0.6812,6.4158,1590579506,N
99,2278235,7.9657,-0.6843,5.8002,8.3300,-7.5600,-5.7400,999.1105,7.4995,-0.6163,6.2887,1590579507,N
99,2281729,8.0518,-0.3159,5.6830,5.3200,-4.4100,-5.1100,999.1082,7.5932,-0.5066,6.1853,1590579507,N
99,2286335,7.9250,-0.0191,5.9151,28.7000,0.4200,-8.2600,999.1059,6.6911,-0.2279,7.1657,1590579507,N
99,2290628,7.7504,-0.0072,6.2979,11.6200,-3.7100,-5.3200,999.1041,9.7427,-0.1523,1.1076,1590579507,N
98,2289955,8.3677,1.6415,5.2355,17.7100,-2.1700,2.8700,999.1021,8.8314,0.2256,4.2574,1590579507,N
99,2287659,8.0877,1.5505,5.3791,-20.0200,3.0100,3.7100,999.1012,8.3993,0.4141,5.0448,1590579507,N
98,2286830,8.0806,-0.3159,6.1854,-19.9500,4.5500,4.4100,999.0999,8.2910,0.1787,5.2344,1590579507,N
98,2286361,8.1356,-0.6269,5.7523,-3.2900,1.0500,1.4000,999.0985,9.4364,-0.0062,2.6691,1590579507,N
98,2286743,8.0040,-0.0263,5.9701,7.5600,0.4900,-8.6100,999.0984,8.0151,0.0759,5.6500,1590579507,N
98,2287214,8.0351,0.3494,5.7117,-1.8900,-1.8900,1.8200,999.0985,8.0425,0.1122,5.6104,1590579507,N
98,2285368,8.1021,0.2369,5.7763,-4.6900,5.6000,1.9600,999.0988,7.8748,0.1079,5.8435,1590579508,N
98,2283007,8.0806,-0.0263,5.9821,-14.2100,3.2900,3.9200,999.0985,9.5443,0.0168,2.2533,1590579508,N
98,2282565,7.9131,-0.3924,5.9462,-6.1600,0.4900,0.8400,999.0983,8.5387,-0.0948,4.8220,1590579508,N
98,2283182,7.9418,-0.4235,5.8481,-1.6800,1.1900,0.9100,999.0977,8.2483,-0.1739,5.3015,1590579508,N
98,2284511,7.7719,0.1196,5.5633,-16.4500,5.9500,10.0100,999.0974,8.1647,-0.2358,5.4271,1590579508,N
98,2285432,7.7312,-0.7418,6.2644,-2.3800,-1.4700,0.1400,999.0970,8.0228,-0.3447,5.6291,1590579508,N
98,2284114,7.9346,-0.4307,5.9677,0.0700,-0.7000,-2.6600,999.0975,8.0586,-0.3437,5.5778,1590579508,N
98,2281860,7.7839,-0.6150,6.0419,13.8600,-1.4000,-3.3600,999.0983,7.8019,-0.3265,5.9324,1590579508,N
98,2281623,7.8772,0.2943,6.1113,27.0900,-1.1900,-5.4600,999.0995,9.7275,-0.0875,1.2406,1590579508,N
98,2281856,7.9777,0.0981,6.2572,4.6200,-3.8500,-4.7600,999.0995,9.3497,-0.0079,2.9587,1590579508,N
98,2282419,8.1643,-0.5384,5.4509,-34.6500,2.2400,6.0200,999.0994,8.2722,-0.2610,5.2604,1590579509,N
98,2284328,7.6810,-0.3685,6.1926,-33.1800,6.1600,10.8500,999.1002,8.2284,-0.4671,5.3147,1590579509,N
98,2284243,7.6451,-0.4786,6.2285,1.0500,-1.4000,1.8200,999.1006,8.0792,-0.4797,5.5378,1590579509,N
98,2283297,8.0016,-0.3709,6.0443,0.9100,2.5900,0.0700,999.1016,8.0182,-0.4544,5.6279,1590579509,N
98,2284092,7.9537,-0.8542,5.9988,0.7000,-0.7700,-1.8900,999.1030,7.9843,-0.5172,5.6705,1590579509,N
98,2284914,7.8604,-0.2321,6.0993,7.4200,0.0700,-2.2400,999.1048,7.9045,-0.4192,5.7891,1590579509,N
98,2285858,7.7121,-0.4570,6.1567,4.2000,0.4900,-2.0300,999.1068,7.8303,-0.3986,5.8905,1590579509,N
98,2287465,7.8509,-0.2895,6.2405,28.7000,-2.1700,-5.6000,999.1077,7.0221,-0.2222,6.8419,1590579509,N
98,2287291,7.8197,-0.2369,6.1208,7.6300,-2.1000,-2.1000,999.1082,6.7852,-0.1767,7.0782,1590579509,N
98,2284507,7.9825,-0.8806,5.8481,-18.0600,-6.0900,5.4600,999.1083,7.7398,-0.4277,6.0069,1590579509,N
98,2283450,7.9155,-0.2465,6.1567,-6.7200,2.1700,0.9800,999.1089,7.8307,-0.4220,5.8883,1590579510,N
98,2283950,7.8509,-0.2058,6.0036,4.2000,-0.1400,3.4300,999.1096,7.6398,-0.3820,6.1366,1590579510,N
98,2284740,7.9490,-0.9141,6.0610,2.4500,0.5600,0.7000,999.1105,7.6294,-0.4785,6.1428,1590579510,N
98,2285859,7.9777,-0.7561,6.1687,9.4500,-5.6000,0.3500,999.1107,7.5119,-0.4921,6.2849,1590579510,N
98,2285420,8.0806,-0.5121,5.8457,-3.1500,1.0500,-0.9100,999.1108,7.6750,-0.5032,6.0838,1590579510,N
98,2282917,7.8126,-0.8351,6.2046,-3.7800,1.2600,0.5600,999.1108,7.7201,-0.5842,6.0191,1590579510,N
98,2282406,7.9083,-0.6317,5.9701,1.3300,0.3500,1.6100,999.1113,7.6899,-0.5964,6.0565,1590579510,N
98,2282656,7.9274,-0.6820,6.1376,-0.7700,-0.7700,0.2100,999.1113,7.7123,-0.6144,6.0260,1590579510,N
98,2283312,7.9250,-0.5599,5.9868,3.9200,-0.7000,0.2100,999.1114,7.6750,-0.5876,6.0762,1590579510,N
98,2284467,7.9394,-0.6915,6.1208,-2.3100,-0.5600,-0.4200,999.1126,7.7352,-0.6117,5.9970,1590579510,N
98,2284689,7.8676,-0.5264,5.9725,3.5000,-0.4200,-1.1900,999.1132,7.7207,-0.5732,6.0194,1590579511,N
98,2282783,7.7240,-0.5456,6.1735,3.5000,2.1000,0.3500,999.1138,7.6331,-0.5549,6.1317,1590579511,N
98,2282162,7.7599,-1.2897,6.0132,-4.4100,-4.1300,-0.9100,999.1152,7.7545,-0.7104,5.9610,1590579511,N
98,2282615,7.9705,-0.6843,5.8863,4.8300,-2.8700,-1.5400,999.1170,7.7607,-0.6755,5.9570,1590579511,N
98,2283605,7.9011,-0.6126,6.1783,-2.7300,-0.4900,-0.7000,999.1179,7.7973,-0.6662,5.9101,1590579511,N
98,2284668,7.8628,-0.4594,6.0275,0.4900,-2.0300,-1.3300,999.1190,7.8211,-0.6137,5.8842,1590579511,N
98,2285092,7.9035,-0.4427,5.8122,9.2400,1.3300,-0.9800,999.1190,7.7111,-0.5383,6.0348,1590579511,N
98,2282812,8.0925,-0.4187,6.0634,-4.9700,1.1900,-1.2600,999.1185,7.8295,-0.5235,5.8817,1590579511,N
98,2281333,7.7432,-0.8016,6.0179,-0.2800,-0.9800,-5.0400,999.1187,7.9076,-0.5488,5.7740,1590579511,N
98,2281232,7.8604,-0.2847,6.1543,10.4300,-2.6600,-0.9100,999.1191,7.7474,-0.4503,5.9955,1590579511,N
98,2281859,7.9394,-0.7681,5.9940,9.5200,-5.3200,-1.3300,999.1182,7.6539,-0.4656,6.1133,1590579512,N
98,2283974,8.0901,-0.0407,5.6973,8.2600,-3.9200,-0.5600,999.1171,7.4949,-0.3427,6.3151,1590579512,N
98,2286206,8.1165,-0.0431,5.8959,-8.7500,2.3800,1.2600,999.1160,7.7361,-0.3257,6.0181,1590579512,N
98,2285037,7.9083,-0.2871,6.2524,0.0700,-1.6800,-3.0100,999.1158,7.8330,-0.2985,5.8928,1590579512,N
98,2284072,8.1141,-0.5480,6.0203,-2.1000,-5.3900,-0.3500,999.1154,7.9294,-0.3501,5.7595,1590579512,N
98,2284013,7.9059,-0.7681,5.7260,60.6900,-2.6600,-13.0900,999.1143,9.7478,-0.1717,1.0585,1590579512,N
98,2284323,8.0686,0.5623,5.8672,27.0200,0.4200,-5.0400,999.1138,9.0994,0.0813,3.6557,1590579512,N
98,2285595,8.0279,0.3852,5.4556,22.1200,-4.7600,-2.5200,999.1140,8.8934,0.2294,4.1262,1590579512,N
98,2287378,8.3773,1.5721,5.5202,-13.0200,-2.6600,12.6000,999.1145,8.7188,0.3648,4.4744,1590579512,N
98,2286018,8.1763,0.6197,5.5681,-3.7100,3.5700,2.4500,999.1154,8.6017,0.3911,4.6935,1590579512,N
98,2285478,8.0518,1.3448,6.2118,34.3000,2.0300,2.1000,999.1161,8.5202,0.6666,4.8096,1590579513,N
98,2286563,8.0686,0.7681,5.6566,26.0400,-2.9400,-0.9100,999.1171,8.5308,0.7721,4.7750,1590579513,N
98,2288023,8.2672,0.8542,5.6088,3.7800,2.4500,0.5600,999.1183,8.4678,0.7966,4.8818,1590579513,N
98,2289882,8.0542,0.3852,5.8361,9.1700,-0.3500,1.8200,999.1188,8.4825,0.7295,4.8668,1590579513,N
98,2291942,8.2170,0.3565,5.5633,4.6200,-1.4700,-1.6800,999.1187,8.4681,0.6793,4.8990,1590579513,N
97,2290932,8.0806,1.0050,5.5681,-20.1600,1.1900,-0.7700,999.1185,8.2376,0.6892,5.2760,1590579513,N
98,2290621,8.0447,1.5458,6.0060,11.6200,-5.8800,-3.1500,999.1186,8.1807,0.9078,5.3313,1590579513,N
97,2291619,8.2026,0.8901,5.1733,8.9600,-3.2900,5.3200,999.1192,8.3183,0.8964,5.1160,1590579513,N
97,2292568,8.2026,0.4140,5.6901,-4.2000,3.0800,2.3800,999.1204,8.2826,0.7709,5.1937,1590579513,N
98,2294068,8.0973,0.3661,5.7212,-1.3300,4.8300,0.0700,999.1215,8.2219,0.6867,5.3009,1590579513,N
97,2295164,8.0279,1.0146,5.8505,10.8500,3.6400,0.9100,999.1219,8.2117,0.7806,5.3036,1590579514,N
97,2293005,8.1715,0.0933,5.7260,0.5600,-4.2000,2.0300,999.1220,8.2741,0.6288,5.2263,1590579514,N
98,2292337,8.0853,1.4477,5.5896,11.4800,3.0100,6.7200,999.1216,8.3191,0.7819,5.1334,1590579514,N
97,2293533,8.0662,1.0887,5.6901,17.5700,-1.2600,2.0300,999.1211,8.3531,0.8832,5.0613,1590579514,N
97,2294802,8.0542,1.1605,5.9605,20.6500,-2.9400,3.9900,999.1210,8.3850,0.9713,4.9918,1590579514,N
98,2296703,8.3246,0.6269,5.3910,12.1800,-2.3100,-2.3100,999.1221,8.4115,0.9521,4.9509,1590579514,N
97,2298542,8.2481,0.9452,5.6351,6.5100,-0.6300,-4.8300,999.1228,8.3372,1.0021,5.0653,1590579514,N
97,2296224,8.0566,1.3735,5.7069,-12.8800,1.1900,-4.8300,999.1228,8.1381,1.0654,5.3672,1590579514,N
98,2294564,8.0662,1.7515,5.7595,-17.6400,-2.8000,-2.7300,999.1229,7.9674,1.1482,5.6011,1590579514,N
97,2294391,8.0734,0.8207,5.5896,-10.7800,-5.2500,-1.6800,999.1227,7.9169,1.0516,5.6909,1590579514,N
98,2294760,8.1452,0.7178,5.3767,1.2600,-0.4900,1.1900,999.1225,7.9839,0.9826,5.6091,1590579515,N
98,2295894,8.1428,0.6604,5.6973,-0.7700,-2.5200,-1.2600,999.1223,7.9802,0.9205,5.6249,1590579515,N
98,2296474,8.3079,1.2826,5.4054,0.3500,-6.3000,-2.3100,999.1222,8.0360,1.0024,5.5306,1590579515,N
98,2294405,8.2935,0.9117,5.3743,-20.2300,-2.8700,6.6500,999.1230,7.9957,0.8694,5.6110,1590579515,N
98,2293898,8.4395,0.4140,5.0536,14.9100,-0.2100,-1.2600,999.1242,8.1721,0.8369,5.3561,1590579515,N
98,2297430,8.2863,1.1533,4.9173,-3.3600,22.8900,8.1200,999.1253,8.1765,0.8480,5.3475,1590579515,N
98,2302615,7.8963,-1.3400,6.8028,-48.6500,0.9800,8.1900,999.1259,7.2372,0.2043,6.6145,1590579515,N
98,2305022,8.2361,-0.5671,6.2381,-17.5000,-12.3900,-7.7000,999.1257,9.6528,0.1007,1.7272,1590579515,N
98,2306019,8.2816,0.0287,5.0106,48.8600,-24.0800,-28.0700,999.1248,7.7111,0.3837,6.0466,1590579515,N
98,2307023,8.5376,1.3807,4.8598,9.4500,-1.9600,-0.7700,999.1240,8.1863,0.6254,5.3632,1590579515,N
98,2308079,8.5639,0.8877,4.9699,-7.4200,4.7600,-10.7800,999.1232,8.0072,0.7197,5.6158,1590579516,N
98,2309339,8.3294,1.1174,4.9962,-14.2800,3.6400,0.9100,999.1217,7.9606,0.7468,5.6782,1590579516,N
98,2310194,8.1619,1.0457,5.6231,0.8400,4.9000,4.5500,999.1209,8.0319,0.7794,5.5725,1590579516,N
98,2311113,8.3222,1.0457,5.7188,17.9200,-2.8700,-2.5900,999.1204,8.1656,0.9018,5.3554,1590579516,N
98,2311516,8.3725,1.3208,5.0369,6.4400,-1.8200,-0.2800,999.1197,8.2499,1.0069,5.2053,1590579516,N
98,2308684,8.1835,1.3472,5.7236,27.5100,-0.0700,-6.0900,999.1194,8.2694,1.1969,5.1337,1590579516,N
98,2307496,8.5137,1.0744,4.8670,-24.2900,-3.5700,4.4100,999.1190,8.2497,1.0628,5.1946,1590579516,N
98,2307110,8.4395,0.8160,5.3958,-14.4900,-1.6800,4.0600,999.1192,8.2071,0.9355,5.2857,1590579516,N
98,2307820,8.4395,1.1629,5.4700,-12.1100,5.9500,-2.0300,999.1191,8.0678,0.9477,5.4940,1590579516,N
98,2307867,8.3246,1.0146,5.5202,22.8900,1.7500,-1.7500,999.1192,8.2004,1.0448,5.2756,1590579516,N
98,2308207,8.3198,1.1007,5.3336,-23.5900,1.6800,1.6100,999.1196,8.0597,0.9641,5.5029,1590579517,N
98,2305444,8.3701,0.0479,5.4293,-22.4700,0.4900,1.6100,999.1195,7.8480,0.6890,5.8398,1590579517,N
99,2303786,8.2935,-0.5527,4.8909,-25.7600,-5.4600,2.9400,999.1201,7.0252,0.2973,6.8358,1590579517,N
98,2305829,8.2959,-0.0455,5.5561,1.3300,-0.9800,-6.1600,999.1201,6.9140,0.2629,6.9497,1590579517,N
99,2306496,8.2911,0.1866,5.5729,7.8400,-3.9900,-3.1500,999.1202,7.3873,0.3070,6.4424,1590579517,N
99,2306549,8.4491,0.2154,5.3671,13.2300,-0.4900,-4.2700,999.1205,7.8431,0.3694,5.8754,1590579517,N
99,2307903,8.2672,0.3446,5.7284,10.0800,-4.2700,-2.2400,999.1209,8.0665,0.4128,5.5617,1590579517,N
99,2306567,8.3414,1.1198,5.1446,41.2300,-11.8300,-5.8100,999.1212,8.4837,0.7159,4.8667,1590579517,N
99,2303843,8.6572,1.2514,4.6875,-2.9400,1.3300,0.9800,999.1212,8.4839,0.8066,4.8522,1590579517,N
99,2302685,8.3414,0.5671,5.3288,2.0300,1.4700,-0.4200,999.1210,8.4480,0.7679,4.9206,1590579517,N
99,2302140,8.3797,1.2395,5.4413,-8.8200,-3.8500,3.2200,999.1212,8.3852,0.8057,5.0209,1590579518,N
99,2301659,8.4084,0.5503,4.8742,-1.1900,-7.6300,-0.6300,999.1214,8.4231,0.7529,4.9653,1590579518,N
99,2301582,8.6788,0.9906,4.8120,-3.1500,0.2100,0.0700,999.1216,8.4283,0.7879,4.9511,1590579518,N
99,2299582,8.4945,0.7657,4.9866,-0.9800,2.8700,1.1200,999.1216,8.4222,0.7729,4.9639,1590579518,N
99,2296776,8.5424,0.7226,5.0321,-17.7800,-0.1400,4.0600,999.1216,8.3418,0.6799,5.1111,1590579518,N
99,2295741,8.4538,0.5838,5.2092,2.9400,0.9100,0.1400,999.1225,8.3616,0.6675,5.0802,1590579518,N
99,2295536,8.5017,0.5743,5.2092,-1.1200,1.8200,1.1900,999.1232,8.3570,0.6359,5.0918,1590579518,N
99,2296005,8.4826,0.6054,5.2164,2.8000,0.9800,0.9100,999.1237,8.3851,0.6304,5.0461,1590579518,N
99,2296915,8.5591,0.5838,5.0752,-0.2100,2.2400,1.9600,999.1243,8.4087,0.6059,5.0098,1590579518,N
99,2296107,8.3964,0.8734,5.5083,8.6100,5.7400,0.2100,999.1254,8.3959,0.6813,5.0214,1590579518,N
99,2293643,8.5017,0.4164,5.1254,-5.2500,2.3800,2.5200,999.1266,8.3860,0.5945,5.0489,1590579519,N
99,2293229,8.3270,0.5456,5.4628,-2.1000,0.3500,0.7700,999.1274,8.3425,0.5717,5.1231,1590579519,N
99,2293609,8.4203,0.6676,5.2140,-6.0200,3.2200,1.4000,999.1291,8.2875,0.5621,5.2126,1590579519,N
99,2293832,8.3438,0.6915,5.2522,-24.9200,8.4700,7.2800,999.1295,8.0715,0.4599,5.5507,1590579519,N
99,2294596,7.9992,-0.3541,6.2764,-5.8800,4.9700,0.7700,999.1296,7.8546,0.2761,5.8651,1590579519,N
99,2295080,8.2552,0.1077,5.5178,2.4500,1.0500,1.1900,999.1298,8.0109,0.2440,5.6512,1590579519,N
99,2293081,8.2122,-0.0574,5.7906,1.4700,-1.5400,-0.4900,999.1292,8.0381,0.1922,5.6144,1590579519,N
99,2292428,8.1691,0.1484,5.5848,4.8300,-2.8000,-1.4000,999.1286,8.1547,0.2082,5.4431,1590579519,N
99,2292735,8.2744,0.2465,5.5466,1.4700,-1.1900,0.7000,999.1289,8.2287,0.2152,5.3304,1590579519,N
99,2293241,8.2026,0.0837,5.6255,3.0800,-1.1200,-0.0700,999.1292,8.3005,0.1989,5.2184,1590579519,N
99,2294311,8.2576,0.1029,5.5825,1.8900,-1.3300,-0.3500,999.1290,8.3221,0.1875,5.1845,1590579520,N
99,2295257,8.2959,0.0742,5.5490,0.7000,-1.4000,-0.2800,999.1294,8.3215,0.1686,5.1859,1590579520,N
99,2293206,8.3198,0.2297,5.4700,2.1000,-1.7500,0.7000,999.1289,8.3880,0.1817,5.0773,1590579520,N
99,2292324,8.2289,0.1962,5.5801,2.0300,-0.4900,0.2100,999.1288,8.3976,0.1889,5.0612,1590579520,N
99,2292849,8.3031,0.2345,5.5346,2.5900,-1.6100,-0.7700,999.1275,8.3791,0.2105,5.0909,1590579520,N
99,2293440,8.2624,0.1699,5.4628,0.4900,-1.2600,-0.8400,999.1265,8.3298,0.2092,5.1712,1590579520,N
99,2294729,8.2983,0.0981,5.4532,6.4400,-1.1200,-2.5200,999.1252,8.3646,0.2236,5.1141,1590579520,N
99,2296126,8.2863,0.5073,5.3384,8.4700,0.5600,-2.3100,999.1239,8.3803,0.3217,5.0831,1590579520,N
98,2294156,8.2409,0.2297,5.5537,2.8700,-1.6800,0.1400,999.1223,8.3988,0.3104,5.0531,1590579520,N
99,2293160,8.3079,0.4666,5.4365,1.1200,-0.2800,0.7000,999.1208,8.3837,0.3393,5.0763,1590579520,N
98,2293634,8.2433,0.4283,5.5370,-0.4900,-0.2100,-0.0700,999.1196,8.3230,0.3553,5.1741,1590579521,N
98,2294180,8.3414,0.4738,5.4604,9.0300,-1.8200,-3.2900,999.1182,8.3405,0.4273,5.1405,1590579521,N
98,2295206,8.2720,0.7609,5.3336,6.5100,0.0700,-1.4000,999.1172,8.3429,0.5229,5.1277,1590579521,N
98,2296209,8.3270,0.6748,5.5250,5.0400,0.0700,0.4900,999.1169,8.3535,0.5630,5.1062,1590579521,N
98,2294175,8.3366,0.6413,5.4437,-0.9100,1.2600,0.7000,999.1174,8.3183,0.5696,5.1626,1590579521,N
98,2292667,8.2816,0.6054,5.5131,-1.8200,1.1200,1.4000,999.1176,8.2861,0.5603,5.2151,1590579521,N
98,2292896,8.3462,0.5408,5.4174,-1.9600,0.4900,1.4700,999.1187,8.2769,0.5388,5.2320,1590579521,N
98,2293337,8.3007,0.5767,5.5370,5.3900,-0.4200,-0.9100,999.1200,8.2889,0.5674,5.2099,1590579521,N
98,2294319,8.2385,0.8255,5.3862,-2.4500,-1.9600,0.4900,999.1210,8.2566,0.6064,5.2565,1590579521,N
98,2295824,8.4132,0.6413,5.2283,-6.6500,2.3100,-0.9800,999.1221,8.1760,0.5974,5.3820,1590579521,N
98,2292743,8.3007,0.3852,5.6351,-4.7600,0.4900,0.2800,999.1239,8.1087,0.5357,5.4894,1590579522,N
98,2290137,8.3294,0.3230,5.4006,-4.7600,0.1400,0.5600,999.1253,8.0687,0.4726,5.5536,1590579522,N
98,2289588,8.2528,0.4187,5.5298,2.5900,-1.5400,-0.6300,999.1257,8.1146,0.4733,5.4863,1590579522,N
98,2290056,8.3797,0.6197,5.4341,-0.3500,0.3500,-0.4900,999.1270,8.1225,0.5022,5.4720,1590579522,N
98,2291076,8.2361,0.4929,5.5298,-0.3500,-0.5600,-0.1400,999.1273,8.1196,0.4987,5.4766,1590579522,N
98,2292373,8.3175,0.4714,5.4485,0.3500,-0.9800,-0.5600,999.1273,8.1328,0.4965,5.4572,1590579522,N
98,2290392,8.2505,0.5240,5.5753,1.8900,-2.1000,-0.9100,999.1276,8.1472,0.5120,5.4343,1590579522,N
98,2289002,8.3127,0.4594,5.4102,7.8400,-4.0600,-1.6800,999.1282,8.2413,0.5360,5.2882,1590579522,N
98,2289076,8.3725,0.9212,5.1972,10.8500,-3.2200,-3.0800,999.1284,8.3183,0.6653,5.1512,1590579522,N
98,2289492,8.3581,0.9428,5.2738,-1.2600,-0.2800,0.2800,999.1287,8.2988,0.7126,5.1761,1590579522,N
98,2290268,8.3629,0.7107,5.4580,-5.9500,2.3100,1.4700,999.1285,8.2382,0.6815,5.2762,1590579523,N
98,2291495,8.3653,0.6054,5.4796,-5.1800,4.2700,0.3500,999.1288,8.1643,0.6457,5.3942,1590579523,N
98,2288288,8.1691,0.3135,5.5825,24.0100,-5.7400,-3.0100,999.1286,8.3468,0.6736,5.1037,1590579523,N
98,2285730,8.4251,1.1557,5.1159,13.7200,-5.6000,-3.7800,999.1283,8.3999,0.8331,4.9919,1590579523,N
98,2285395,8.3486,1.3496,5.4676,15.9600,-9.4500,-6.3700,999.1280,8.3984,1.0170,4.9601,1590579523,N
98,2285904,8.6189,1.6367,4.8431,16.1000,-12.6700,-4.9000,999.1271,8.4844,1.2079,4.7672,1590579523,N
98,2287719,8.5089,2.3402,4.8694,4.1300,-10.5700,3.3600,999.1263,8.5240,1.3991,4.6427,1590579523,N
98,2289795,8.6788,1.3591,4.1731,7.7000,2.1000,11.3400,999.1257,8.6536,1.3347,4.4163,1590579523,N
98,2289480,8.4251,0.8973,5.9079,20.3000,2.4500,-3.2200,999.1255,8.5803,1.3303,4.5584,1590579523,N
98,2290665,8.4778,2.0841,4.8694,211.8900,-60.1300,-9.3100,999.1249,8.9358,2.0310,3.4925,1590579523,N
98,2294589,9.3153,1.7707,0.8518,32.8300,-57.0500,3.2200,999.1242,9.3019,1.9639,2.4060,1590579524,N
98,2300784,9.3320,3.7472,-0.5049,-18.4100,-5.3200,-37.1000,999.1239,9.2554,2.5543,1.9957,1590579524,N
98,2304381,8.9204,4.2162,1.2993,-53.8300,17.5700,-60.2000,999.1241,8.9475,3.2870,2.3039,1590579524,N
98,2309901,8.0160,5.2283,3.3284,-15.7500,22.7500,-50.6100,999.1245,8.4427,4.0880,2.8600,1590579524,N
98,2309900,7.1378,4.9220,3.2088,-8.2600,9.3100,-15.8900,999.1260,8.1714,4.4391,3.1135,1590579524,N
98,2304432,7.9394,4.5440,3.0485,-15.4700,11.0600,-4.7600,999.1273,8.0894,4.4892,3.2525,1590579524,N
98,2299916,7.3196,5.3575,3.7472,-24.9900,12.9500,12.8800,999.1279,7.9570,4.5210,3.5238,1590579524,N
98,2300411,7.8700,4.6995,4.2209,-5.2500,-8.6100,4.2700,999.1279,7.9597,4.4609,3.5936,1590579524,N
98,2300569,8.3031,3.8620,3.7591,-12.9500,1.1200,-2.9400,999.1276,8.0002,4.3104,3.6861,1590579524,N
98,2301503,8.2863,5.2283,2.8546,1.2600,2.1000,7.3500,999.1270,8.0341,4.4082,3.4917,1590579524,N
98,2302917,7.8652,5.1063,3.9673,-5.3200,-0.9800,-0.3500,999.1267,7.9504,4.4916,3.5759,1590579525,N
98,2302167,8.3342,4.6325,3.7328,-0.5600,-0.9800,1.6800,999.1256,7.9696,4.4637,3.5680,1590579525,N
98,2301721,7.8891,4.8479,3.6849,4.3400,-8.6100,-2.8000,999.1248,7.9541,4.5361,3.5111,1590579525,N
98,2302244,7.9466,5.1087,3.4600,0.8400,-3.7800,3.0100,999.1241,7.9472,4.5935,3.4515,1590579525,N
98,2302902,8.0088,4.7115,3.4409,-8.1900,-1.7500,4.6200,999.1233,7.9791,4.5369,3.4528,1590579525,N
98,2304050,7.8724,4.4195,3.8142,-11.4100,1.4700,3.3600,999.1233,7.9746,4.4518,3.5718,1590579525,N
98,2305515,7.8245,4.2090,4.2784,-4.9700,4.2000,3.2900,999.1235,7.9373,4.3721,3.7489,1590579525,N
99,2304250,7.9825,4.2808,3.9888,1.0500,-0.0700,0.8400,999.1235,7.9361,4.3443,3.7836,1590579525,N
98,2302099,7.9537,4.2209,4.1563,-1.1200,-0.1400,0.4200,999.1240,7.9258,4.3035,3.8512,1590579525,N
98,2301378,7.9753,4.3717,3.9314,1.3300,-1.3300,-1.1900,999.1243,7.9196,4.3182,3.8475,1590579525,N
98,2301496,8.0351,4.2999,4.0606,-18.4800,-0.6300,0.9100,999.1243,7.9261,4.2216,3.9402,1590579526,N
98,2302043,8.0064,4.0152,4.2090,-1.0500,-0.0700,0.5600,999.1243,7.9314,4.1654,3.9891,1590579526,N
98,2303163,8.0255,4.2425,3.9721,1.5400,-0.9100,-0.5600,999.1248,7.9353,4.1795,3.9664,1590579526,N
98,2303873,7.9131,4.0989,4.2018,1.7500,0.7700,-0.5600,999.1257,7.9175,4.1723,4.0095,1590579526,N
98,2302028,8.0040,4.0941,4.1324,3.7100,-0.7000,-0.9800,999.1263,7.9191,4.1687,4.0100,1590579526,N
98,2300338,7.9513,4.3238,3.9242,3.7100,-0.6300,-0.2800,999.1271,7.9176,4.2092,3.9704,1590579526,N
98,2300197,7.8078,4.1468,4.1683,4.4800,-0.8400,1.4700,999.1286,7.9116,4.2051,3.9868,1590579526,N
98,2300596,7.9777,4.2329,4.0223,0.9100,-1.1900,-0.8400,999.1296,7.9134,4.2103,3.9776,1590579526,N
98,2301474,7.9131,4.2879,4.0558,-3.5700,0.0700,-0.1400,999.1306,7.9024,4.2076,4.0023,1590579526,N
98,2302810,7.9490,4.1827,4.2090,0.8400,0.0700,0.8400,999.1311,7.8975,4.1909,4.0295,1590579526,N
98,2302956,8.1835,4.1994,4.0008,0.2100,-0.5600,-0.7000,999.1320,7.9176,4.1784,4.0029,1590579527,N
98,2300707,7.7647,4.3765,3.9936,-2.0300,1.4700,0.9100,999.1328,7.8913,4.2109,4.0207,1590579527,N
98,2299475,7.9657,4.0128,4.1803,4.5500,0.9800,1.1200,999.1334,7.9000,4.1796,4.0362,1590579527,N
98,2299369,7.9968,4.3071,4.0750,-0.8400,0.2100,0.8400,999.1337,7.8986,4.1837,4.0347,1590579527,N
98,2299761,7.9011,4.1348,4.1707,-0.8400,0.2100,1.1900,999.1332,7.8979,4.1598,4.0607,1590579527,N
98,2300778,7.9777,4.2353,4.0199,3.0800,-1.4000,-0.3500,999.1329,7.9057,4.1792,4.0255,1590579527,N
97,2302164,7.8580,4.2281,4.1396,-0.8400,-0.2100,0.7000,999.1327,7.8958,4.1780,4.0461,1590579527,N
98,2301167,7.9872,4.0032,4.0558,3.2900,-2.3100,-0.3500,999.1328,7.9225,4.1522,4.0204,1590579527,N
98,2299142,8.0471,4.3406,3.9721,-2.1000,0.2100,-0.2800,999.1323,7.9194,4.1702,4.0078,1590579527,N
97,2298285,7.8245,4.0606,4.2353,-0.1400,1.2600,1.1900,999.1315,7.9050,4.1450,4.0621,1590579527,N
97,2298210,7.9896,4.2664,4.1013,4.6200,-0.7700,-0.4200,999.1308,7.9013,4.1766,4.0368,1590579528,N
97,2298860,7.8724,4.3238,4.0989,-5.8800,0.7000,0.5600,999.1307,7.8849,4.1753,4.0700,1590579528,N
97,2299720,7.9633,4.0774,4.2281,1.9600,0.2100,1.1200,999.1313,7.8909,4.1487,4.0856,1590579528,N
97,2300697,7.9753,4.2999,3.9817,1.6800,-1.0500,-1.2600,999.1309,7.8924,4.1840,4.0466,1590579528,N
97,2298691,7.8413,4.2018,4.1994,-0.1400,-0.0700,0.6300,999.1307,7.8807,4.1801,4.0733,1590579528,N
97,2297024,8.0710,4.1228,4.1013,4.9000,-0.8400,0.6300,999.1302,7.9025,4.1696,4.0416,1590579528,N
97,2296887,8.0231,4.3573,3.9793,-1.6100,0.2800,-0.3500,999.1296,7.8995,4.1907,4.0258,1590579528,N
97,2297159,7.8628,4.0606,4.2520,0.7700,0.2800,0.8400,999.1290,7.8936,4.1618,4.0671,1590579528,N
97,2298116,8.0160,4.3310,3.8931,0.6300,-1.1900,-0.4900,999.1292,7.9054,4.1901,4.0147,1590579528,N
96,2299454,7.9466,4.2425,4.1874,-2.5900,-1.1900,0.7000,999.1292,7.9026,4.1724,4.0387,1590579528,N
97,2299393,8.0112,4.2042,4.1563,3.0800,-0.4200,-0.2100,999.1292,7.9010,4.1784,4.0356,1590579529,N
97,2297432,7.9872,4.1803,4.0702,-3.2200,-1.6100,-0.4200,999.1296,7.9104,4.1585,4.0376,1590579529,N
96,2296668,7.9155,4.1683,4.0869,2.0300,-0.6300,0.4900,999.1296,7.9120,4.1610,4.0320,1590579529,N
96,2297165,8.0303,4.3525,3.8979,-0.2800,0.7000,0.2800,999.1289,7.9141,4.1872,4.0006,1590579529,N
96,2297731,7.8963,4.1803,4.1803,-0.8400,1.8200,2.2400,999.1285,7.9036,4.1666,4.0426,1590579529,N
96,2298584,8.0566,4.1946,4.0630,-0.2100,0.9800,0.6300,999.1281,7.9093,4.1572,4.0411,1590579529,N
96,2299338,8.0088,4.1276,4.2090,-1.4000,0.4900,0.4900,999.1277,7.9073,4.1322,4.0706,1590579529,N
96,2296865,8.0399,4.0534,4.1444,2.5200,0.0700,0.7700,999.1276,7.9201,4.1122,4.0659,1590579529,N
96,2295061,8.0614,4.0774,4.2497,7.1400,0.2100,-0.4200,999.1278,7.9168,4.1215,4.0629,1590579529,N
96,2294971,7.8556,4.2305,4.0941,13.3700,-4.5500,-1.6800,999.1284,7.9150,4.1953,3.9903,1590579529,N
96,2295540,8.0734,4.4818,3.4792,1.0500,-2.5200,0.1400,999.1282,7.9516,4.2459,3.8619,1590579530,N
96,2296941,7.9561,4.3621,3.7926,-7.7000,1.7500,1.2600,999.1280,7.9479,4.2326,3.8841,1590579530,N
95,2298439,7.9872,4.0391,4.1635,-0.3500,1.5400,0.9800,999.1270,7.9438,4.1843,3.9444,1590579530,N
96,2297442,8.0590,4.3167,3.8118,0.4900,-1.2600,-0.3500,999.1267,7.9553,4.2036,3.9004,1590579530,N
95,2295281,7.8844,4.2401,4.0439,-1.5400,0.6300,0.6300,999.1270,7.9389,4.2010,3.9366,1590579530,N
95,2294733,8.0806,4.1635,3.9290,1.6100,-0.0700,-0.3500,999.1278,7.9500,4.1939,3.9217,1590579530,N
95,2294880,7.9753,4.2640,3.9673,-3.6400,0.7700,-0.2100,999.1289,7.9399,4.1913,3.9447,1590579530,N
95,2295695,7.9322,4.1659,4.2162,0.1400,0.5600,1.1200,999.1292,7.9262,4.1728,3.9917,1590579530,N
95,2296999,8.0662,4.3047,3.8859,1.6800,-0.9100,-0.2800,999.1295,7.9364,4.1945,3.9485,1590579530,N
95,2297046,7.8820,4.2209,4.1204,-1.0500,0.3500,0.7000,999.1299,7.9214,4.1887,3.9845,1590579530,N
95,2294891,8.0925,4.1539,4.0989,1.6100,-0.2800,-0.4900,999.1304,7.9269,4.1764,3.9865,1590579531,N
95,2293644,7.9370,4.2879,3.9817,-2.3800,-0.2800,-0.1400,999.1304,7.9212,4.1852,3.9886,1590579531,N
95,2293940,7.9657,4.1444,4.0845,-0.2800,0.2100,0.8400,999.1307,7.9238,4.1658,4.0037,1590579531,N
95,2294550,8.0614,4.2592,3.9673,-0.6300,-0.5600,-0.7000,999.1301,7.9287,4.1739,3.9855,1590579531,N
95,2295742,7.8532,4.2090,4.1635,-0.8400,-0.6300,0.1400,999.1296,7.9130,4.1733,4.0173,1590579531,N
94,2296846,8.0638,4.2138,4.1133,5.4600,-2.1000,-1.0500,999.1301,7.9187,4.1896,3.9889,1590579531,N
95,2295341,8.0064,4.3621,3.8883,-0.7700,-1.1200,-0.9800,999.1302,7.9203,4.2160,3.9578,1590579531,N
94,2294086,7.9155,4.2353,4.0582,1.1200,-1.1200,0.9800,999.1308,7.9219,4.2109,3.9602,1590579531,N
94,2294368,8.1141,4.2784,3.8620,1.9600,-0.4200,-0.3500,999.1305,7.9366,4.2210,3.9196,1590579531,N
94,2294820,7.8461,4.2377,4.1420,-1.8200,0.5600,0.7000,999.1299,7.9157,4.2122,3.9711,1590579531,N
94,2296103,8.0112,4.2185,3.9721,1.8900,0.4200,0.5600,999.1290,7.9222,4.2110,3.9595,1590579532,N
94,2297676,7.9537,4.1468,4.0223,-2.3800,0.2800,0.2800,999.1273,7.9251,4.1857,3.9804,1590579532,N
94,2296244,7.8939,4.1420,4.0678,2.1000,-0.0700,0.7000,999.1256,7.9236,4.1807,3.9886,1590579532,N
94,2294659,8.1212,4.2233,3.9769,0.9800,0.0700,-0.3500,999.1251,7.9328,4.1810,3.9700,1590579532,N
94,2294423,7.8772,4.2401,4.1922,0.9800,-0.1400,0.0700,999.1254,7.9112,4.1900,4.0034,1590579532,N
94,2295006,8.0830,4.2449,3.9793,0.7000,0.2100,0.4200,999.1259,7.9217,4.1883,3.9843,1590579532,N
94,2296038,7.9322,4.2138,4.1085,-2.0300,-0.0700,0.0700,999.1268,7.9135,4.1791,4.0103,1590579532,N
94,2297422,7.9968,4.1515,4.1037,2.0300,-0.0700,0.2800,999.1287,7.9165,4.1713,4.0124,1590579532,N
94,2297057,8.0566,4.2233,3.8955,-0.0700,-0.7700,-0.5600,999.1300,7.9312,4.1762,3.9782,1590579532,N
94,2295171,7.8556,4.2162,4.1420,0.8400,-0.3500,0.8400,999.1307,7.9179,4.1791,4.0015,1590579532,N
94,2294721,8.1595,4.2473,3.9960,-1.1200,-0.2100,-0.1400,999.1318,7.9306,4.1702,3.9858,1590579533,N
94,2294896,7.8652,4.1898,4.2162,-3.0100,0.7000,0.4200,999.1321,7.9084,4.1573,4.0427,1590579533,N
94,2295704,8.0638,4.0917,4.1563,3.1500,-0.5600,0.4200,999.1325,7.9206,4.1401,4.0367,1590579533,N
94,2296863,8.0351,4.2712,3.9984,-0.6300,-1.4700,-1.1900,999.1329,7.9235,4.1573,4.0132,1590579533,N
94,2297486,7.9322,4.3358,4.1492,0.9800,-1.5400,-0.9100,999.1329,7.9059,4.1875,4.0166,1590579533,N
93,2295843,7.9633,4.3693,3.8572,0.4200,-0.2800,0.2800,999.1325,7.9106,4.2174,3.9757,1590579533,N
94,2294989,7.9920,4.1731,4.0152,-0.8400,-0.2800,0.9100,999.1317,7.9225,4.1930,3.9779,1590579533,N
93,2295354,7.9705,4.1874,4.1061,-3.3600,1.0500,2.1700,999.1316,7.9235,4.1590,4.0115,1590579533,N
93,2296091,7.9298,4.2353,4.0247,5.6700,-3.7800,-1.4700,999.1307,7.9280,4.1935,3.9663,1590579533,N
94,2297323,7.8987,4.1994,3.9625,1.5400,-2.9400,-0.4900,999.1298,7.9371,4.1989,3.9424,1590579533,N
93,2298620,8.1308,4.1827,3.9338,3.6400,-1.8200,-1.9600,999.1285,7.9505,4.2065,3.9070,1590579534,N
93,2297064,7.8700,4.4602,3.8357,-2.7300,2.5900,1.3300,999.1276,7.9267,4.2419,3.9171,1590579534,N
94,2295813,7.8844,4.0654,4.2760,1.1200,2.0300,5.1100,999.1273,7.9275,4.1776,3.9840,1590579534,N
93,2296233,8.2863,4.0463,4.2042,-2.5900,-2.2400,0.8400,999.1269,7.9611,4.1038,3.9938,1590579534,N
93,2297630,8.1476,4.2185,3.5509,-1.4700,-5.4600,-3.1500,999.1265,8.0058,4.1291,3.8767,1590579534,N
94,2299158,7.9322,4.2999,3.8596,1.5400,0.2100,-2.9400,999.1267,7.9752,4.1894,3.8750,1590579534,N
93,2300749,7.9202,4.2257,4.1803,-1.1200,-0.9800,0.0700,999.1266,7.9544,4.1822,3.9252,1590579534,N
93,2299513,8.1021,4.1994,3.9314,4.2000,-0.1400,0.9800,999.1273,7.9674,4.1835,3.8974,1590579534,N
94,2298058,8.0590,4.2568,3.8788,-0.8400,1.6800,-0.2100,999.1287,7.9610,4.1921,3.9011,1590579534,N
93,2298268,7.9825,4.1803,3.9840,-1.6800,1.8900,0.1400,999.1312,7.9500,4.1831,3.9330,1590579534,N
93,2298846,7.9418,4.1731,4.0845,0.3500,-0.0700,0.6300,999.1329,7.9436,4.1738,3.9560,1590579535,N
94,2300070,8.0088,4.2138,3.9577,0.3500,-0.0700,0.6300,999.1336,7.9484,4.1725,3.9475,1590579535,N
93,2301682,7.9394,4.1850,4.0295,-0.2800,-0.2800,-0.0700,999.1340,7.9426,4.1712,3.9606,1590579535,N
94,2300855,7.9753,4.2999,3.9649,0.1400,-0.5600,0.1400,999.1342,7.9390,4.1879,3.9502,1590579535,N
94,2299334,8.0183,4.2305,4.0104,0.9100,-0.4900,0.3500,999.1341,7.9415,4.1872,3.9461,1590579535,N
94,2299244,7.9825,4.2832,3.9721,1.1200,-0.5600,-0.0700,999.1333,7.9381,4.2024,3.9366,1590579535,N
94,2299683,8.0638,4.2736,4.0295,-0.7000,0.6300,0.4900,999.1333,7.9353,4.1976,3.9474,1590579535,N
94,2300589,7.9585,4.1252,4.1276,-0.3500,-0.1400,0.2100,999.1333,7.9319,4.1749,3.9781,1590579535,N
94,2302164,7.9848,4.2377,4.0415,0.2800,-1.1200,0.2800,999.1333,7.9337,4.1758,3.9736,1590579535,N
94,2301644,8.0375,4.2951,3.8907,1.0500,-0.0700,-0.3500,999.1327,7.9366,4.1971,3.9453,1590579535,N
94,2299900,7.9370,4.2592,4.0199,-1.8900,0.1400,-0.4900,999.1325,7.9248,4.2012,3.9647,1590579536,N
94,2299543,7.9705,4.2497,4.0080,2.3800,-1.3300,0.0700,999.1316,7.9280,4.2098,3.9490,1590579536,N
94,2300257,8.0997,4.3143,3.8381,0.2800,-0.3500,-0.4900,999.1309,7.9390,4.2224,3.9134,1590579536,N
94,2301235,7.9418,4.1874,4.0774,0.0700,-0.8400,-0.2100,999.1308,7.9340,4.2107,3.9361,1590579536,N
94,2302551,8.0686,4.2736,3.9649,1.4700,-1.8200,-0.1400,999.1315,7.9446,4.2128,3.9123,1590579536,N
94,2302693,8.0040,4.2185,3.8859,0.0700,-1.3300,-0.9800,999.1319,7.9516,4.2143,3.8965,1590579536,N
94,2300611,7.9753,4.3047,3.8118,1.4000,-1.3300,-0.4200,999.1321,7.9563,4.2351,3.8640,1590579536,N
94,2300083,8.0375,4.2784,3.8764,-0.2800,-0.2800,-0.4200,999.1320,7.9574,4.2372,3.8595,1590579536,N
94,2300290,7.9609,4.3430,3.9434,-0.2800,0.2100,0.2100,999.1321,7.9450,4.2492,3.8718,1590579536,N
94,2300948,8.0088,4.3621,3.9434,0.2100,-0.1400,0.4900,999.1321,7.9399,4.2575,3.8732,1590579536,N
94,2302229,7.9896,4.2855,3.9505,-0.6300,-0.4200,0.6300,999.1320,7.9415,4.2480,3.8802,1590579537,N
94,2302841,8.0877,4.2185,3.9362,-0.0700,-1.0500,-0.2800,999.1329,7.9536,4.2303,3.8750,1590579537,N
94,2300637,7.9848,4.2927,3.8237,3.0800,-2.3800,-0.9800,999.1334,7.9604,4.2526,3.8363,1590579537,N
95,2299216,8.0279,4.3310,3.8189,2.9400,-1.4700,-0.4900,999.1340,7.9644,4.2720,3.8064,1590579537,N
95,2299352,8.0590,4.3573,3.8381,1.3300,-0.8400,0.1400,999.1344,7.9670,4.2799,3.7920,1590579537,N
95,2300036,7.9992,4.3597,3.7735,2.7300,-1.2600,-0.5600,999.1351,7.9671,4.3022,3.7665,1590579537,N
95,2301307,8.0136,4.3884,3.6993,-0.7700,0.1400,0.7700,999.1359,7.9716,4.3070,3.7516,1590579537,N
95,2302775,8.0207,4.3789,3.8166,-0.0700,0.1400,0.4900,999.1364,7.9675,4.3095,3.7574,1590579537,N
95,2300538,8.0614,4.3119,3.6897,0.6300,0.0700,-0.0700,999.1367,7.9769,4.3086,3.7383,1590579537,N
95,2298762,7.9202,4.0869,4.1085,3.7800,-1.1200,1.7500,999.1370,7.9784,4.2637,3.7862,1590579537,N
95,2298858,8.0806,4.6516,3.5198,3.9900,-3.1500,-0.6300,999.1371,7.9850,4.3378,3.6870,1590579538,N
95,2299712,8.0853,4.4985,3.4792,-2.6600,0.3500,0.4900,999.1373,7.9947,4.3504,3.6510,1590579538,N
95,2300906,7.9179,4.5320,3.6897,0.6300,3.6400,1.6800,999.1371,7.9646,4.3844,3.6759,1590579538,N
95,2301941,8.0614,4.1109,4.0415,-0.8400,1.8900,2.8000,999.1370,7.9739,4.3030,3.7513,1590579538,N
95,2300512,8.1021,4.3956,3.5773,0.1400,1.3300,1.1200,999.1372,7.9855,4.3111,3.7171,1590579538,N
95,2298648,7.9131,4.1970,3.8668,-8.2600,6.0200,5.6700,999.1372,7.9810,4.2366,3.8113,1590579538,N
95,2298279,8.1165,3.9697,4.3286,-4.7600,4.4100,3.0100,999.1378,7.9713,4.1382,3.9376,1590579538,N
95,2298857,8.0973,3.9864,4.1396,-1.0500,-0.1400,0.8400,999.1379,7.9820,4.0874,3.9688,1590579538,N
95,2300128,8.0542,4.1420,4.1587,-1.8900,-0.5600,0.7700,999.1378,7.9772,4.0713,3.9948,1590579538,N
95,2301817,8.1523,4.0798,4.1492,-1.6100,-0.2800,0.3500,999.1375,7.9813,4.0467,4.0116,1590579538,N
95,2301965,7.9992,4.0774,4.0726,0.6300,-0.4200,0.6300,999.1373,7.9813,4.0456,4.0128,1590579539,N
95,2300145,8.0853,3.9649,4.1252,2.8000,-2.3800,-1.4700,999.1368,7.9905,4.0367,4.0035,1590579539,N
95,2299671,7.9609,4.1994,3.9147,0.2800,-1.1900,-0.2800,999.1356,7.9877,4.0687,3.9765,1590579539,N
95,2299909,8.0351,4.0774,4.0822,-0.8400,0.7000,0.4200,999.1347,7.9821,4.0590,3.9976,1590579539,N
96,2300506,8.0399,4.1468,4.1133,0.8400,-0.9800,-0.6300,999.1343,7.9741,4.0709,4.0014,1590579539,N
95,2301684,7.9848,4.2832,3.9027,-0.1400,0.4200,0.1400,999.1339,7.9658,4.1077,3.9803,1590579539,N
95,2302221,8.0160,4.1324,4.0439,2.9400,-1.2600,0.3500,999.1329,7.9707,4.1119,3.9662,1590579539,N
95,2300221,8.1595,4.1276,3.9912,-0.8400,0.0700,-0.0700,999.1313,7.9800,4.0984,3.9614,1590579539,N
96,2299348,8.0136,4.0271,4.1468,-1.6100,-0.2800,-0.4900,999.1301,7.9741,4.0749,3.9974,1590579539,N
95,2299616,8.0231,4.0463,3.9936,2.1000,-1.9600,-2.2400,999.1295,7.9782,4.0859,3.9780,1590579539,N
95,2300390,8.1452,4.1755,3.9936,-0.6300,-1.2600,-1.8900,999.1288,7.9794,4.0967,3.9646,1590579540,N
96,2301518,7.9490,4.1468,3.9817,-0.0700,-2.5900,-2.1700,999.1280,7.9747,4.1151,3.9548,1590579540,N
96,2302906,8.0040,4.1946,3.8333,1.8200,-1.6100,-0.7000,999.1271,7.9834,4.1380,3.9132,1590579540,N
96,2301046,8.0471,4.2066,3.9147,-0.9800,0.9100,0.4200,999.1264,7.9807,4.1404,3.9161,1590579540,N
96,2299537,8.1117,4.1827,4.0247,0.2100,0.7700,0.1400,999.1261,7.9767,4.1365,3.9285,1590579540,N
96,2299365,7.9872,4.1850,3.9410,-0.8400,0.3500,0.7700,999.1260,7.9753,4.1355,3.9322,1590579540,N
96,2299924,8.0375,4.1157,4.0415,-0.2800,0.2100,0.2100,999.1266,7.9738,4.1224,3.9490,1590579540,N
96,2300964,7.9992,4.1659,4.0247,1.1200,-0.8400,-0.4900,999.1265,7.9691,4.1309,3.9496,1590579540,N
96,2302385,8.0351,4.1276,4.0558,0.5600,-0.5600,-0.1400,999.1270,7.9688,4.1241,3.9573,1590579540,N
96,2301528,8.0279,4.2138,3.9769,1.6100,-1.0500,-0.7700,999.1273,7.9666,4.1430,3.9421,1590579540,N
96,2299926,8.0255,4.2090,3.9625,-0.4200,-0.4200,-0.3500,999.1276,7.9651,4.1488,3.9389,1590579541,N
96,2299675,8.0447,4.1707,3.9960,-0.1400,-0.7700,-0.0700,999.1277,7.9686,4.1432,3.9378,1590579541,N
96,2300274,8.0040,4.2640,3.9697,0.2800,-0.5600,-0.2100,999.1284,7.9623,4.1605,3.9323,1590579541,N
96,2301492,8.0255,4.2760,3.9123,-0.4200,-0.2800,-0.4200,999.1292,7.9594,4.1762,3.9215,1590579541,N
96,2302921,8.0471,4.1779,4.0558,-0.6300,-0.8400,0.2100,999.1293,7.9616,4.1601,3.9342,1590579541,N
96,2303327,8.0327,4.3047,3.8333,1.0500,-0.3500,-0.2800,999.1292,7.9632,4.1871,3.9020,1590579541,N
96,2301564,7.9298,4.1372,3.9697,-0.6300,-0.7000,-0.4200,999.1293,7.9614,4.1778,3.9157,1590579541,N
96,2301196,8.0447,4.2688,3.9936,1.4700,-1.6100,0.1400,999.1286,7.9638,4.1848,3.9033,1590579541,N
96,2301695,8.0255,4.2808,3.8046,0.4900,-0.1400,-0.0700,999.1282,7.9680,4.2015,3.8768,1590579541,N
96,2302534,8.0040,4.2233,4.0487,-1.6100,1.0500,0.8400,999.1274,7.9572,4.1875,3.9138,1590579541,N
96,2303740,8.0542,4.1444,4.0487,1.6100,-0.0700,0.4200,999.1271,7.9602,4.1723,3.9241,1590579542,N
96,2304899,8.0471,4.2185,3.8620,-0.7700,-0.2100,-0.1400,999.1273,7.9673,4.1735,3.9082,1590579542,N
96,2303002,7.9992,4.1970,4.0702,-0.8400,-0.2100,-0.4900,999.1280,7.9562,4.1695,3.9350,1590579542,N
96,2301976,8.1188,4.2879,3.8788,1.1900,-0.5600,0.2800,999.1277,7.9665,4.1806,3.9023,1590579542,N
96,2302223,8.0207,4.2425,3.9051,-1.4000,1.5400,0.9800,999.1272,7.9634,4.1785,3.9109,1590579542,N
96,2302876,8.0112,4.1276,4.0869,-0.0700,0.3500,0.1400,999.1274,7.9578,4.1606,3.9412,1590579542,N
96,2303999,8.0662,4.2162,3.9338,1.0500,-1.4700,-0.5600,999.1281,7.9659,4.1668,3.9182,1590579542,N
96,2305592,8.0614,4.2544,3.8237,0.9800,-0.4900,0.3500,999.1295,7.9762,4.1778,3.8854,1590579542,N
96,2304122,7.9513,4.3238,3.9266,0.9800,0.5600,-0.0700,999.1311,7.9586,4.2074,3.8895,1590579542,N
96,2302535,7.9681,4.2305,4.0869,0.2100,-0.0700,0.2800,999.1324,7.9467,4.2027,3.9190,1590579542,N
96,2302380,8.0279,4.2568,4.0080,0.5600,-0.4900,0.2100,999.1326,7.9460,4.2023,3.9208,1590579543,N
96,2302826,8.0495,4.2090,3.9027,0.9800,-0.5600,-0.0700,999.1325,7.9558,4.1998,3.9035,1590579543,N
96,2303603,7.9992,4.2185,4.0343,0.5600,-0.3500,0.2800,999.1329,7.9519,4.1948,3.9168,1590579543,N
96,2305119,8.0207,4.2090,3.9673,-0.2800,-0.2800,0.4900,999.1336,7.9561,4.1854,3.9184,1590579543,N
96,2304716,7.9920,4.2425,4.0295,0.7700,-0.3500,-0.0700,999.1340,7.9486,4.1911,3.9275,1590579543,N
96,2302815,8.0351,4.2401,4.0032,0.0700,-0.5600,-0.0700,999.1344,7.9485,4.1899,3.9288,1590579543,N
96,2302279,8.0351,4.2401,3.9338,0.2800,-0.8400,-0.4200,999.1351,7.9526,4.1939,3.9164,1590579543,N
96,2302617,7.9992,4.2233,3.9386,0.2100,-0.7700,-0.3500,999.1348,7.9542,4.1960,3.9108,1590579543,N
96,2303445,8.0136,4.2377,3.9171,0.4200,-0.8400,-0.4200,999.1341,7.9569,4.2010,3.9001,1590579543,N
96,2304843,8.0231,4.2760,3.9123,-0.2800,-0.6300,0.1400,999.1337,7.9591,4.2045,3.8918,1590579543,N
96,2305082,8.0853,4.2257,3.9242,0.0700,-0.4900,-0.2800,999.1332,7.9650,4.1992,3.8854,1590579544,N
96,2303082,8.0183,4.1922,3.9577,0.7700,-0.9800,-0.2800,999.1332,7.9676,4.1944,3.8852,1590579544,N
96,2302222,8.0112,4.2736,3.9553,0.7000,-0.7000,-0.2800,999.1334,7.9624,4.2047,3.8847,1590579544,N
96,2302315,8.0423,4.2736,3.9817,0.1400,-0.5600,-0.0700,999.1330,7.9592,4.2067,3.8892,1590579544,N
96,2302940,8.0638,4.2592,3.8931,-0.0700,0.2100,0.2800,999.1331,7.9627,4.2062,3.8825,1590579544,N
96,2303867,8.0758,4.2425,3.8955,-0.2100,0.2100,0.7700,999.1322,7.9697,4.1981,3.8769,1590579544,N
96,2304330,8.0590,4.2305,3.9266,-0.1400,-0.3500,0.2100,999.1305,7.9729,4.1927,3.8761,1590579544,N
96,2302043,8.0279,4.2138,3.9386,0.4900,-0.0700,0.3500,999.1290,7.9731,4.1894,3.8793,1590579544,N
96,2300600,8.0614,4.2425,3.9601,0.6300,-0.2100,0.4900,999.1281,7.9734,4.1877,3.8806,1590579544,N
96,2300438,8.0590,4.2329,3.9123,-0.7000,0.3500,0.4200,999.1279,7.9745,4.1833,3.8830,1590579544,N
96,2300615,8.0207,4.2209,3.9769,-0.2800,0.3500,0.4200,999.1274,7.9694,4.1800,3.8970,1590579545,N
96,2301419,8.0423,4.2042,3.9171,0.3500,-0.1400,0.2100,999.1275,7.9729,4.1778,3.8922,1590579545,N
96,2302384,8.0471,4.2233,3.9553,0.6300,-0.7000,-0.1400,999.1274,7.9732,4.1796,3.8896,1590579545,N
96,2299978,8.0064,4.3502,3.9099,0.7000,-0.4900,0.1400,999.1266,7.9653,4.2046,3.8789,1590579545,N
96,2297862,8.0614,4.1683,3.9290,0.4200,-0.0700,0.6300,999.1266,7.9743,4.1874,3.8791,1590579545,N
96,2297573,8.0447,4.2497,3.9410,0.4200,-0.2100,0.6300,999.1270,7.9746,4.1872,3.8785,1590579545,N
96,2297924,8.0471,4.2162,3.9410,0.9100,-0.9800,-0.3500,999.1280,7.9763,4.1883,3.8739,1590579545,N
96,2298501,8.0183,4.2018,3.9625,1.0500,-0.7700,-0.3500,999.1282,7.9743,4.1892,3.8771,1590579545,N
96,2299666,8.0088,4.2688,3.8524,0.3500,-0.7700,0.1400,999.1285,7.9769,4.1989,3.8612,1590579545,N
95,2298291,8.0112,4.2760,3.8644,1.0500,-0.5600,-0.1400,999.1288,7.9754,4.2125,3.8495,1590579545,N
96,2295889,8.0207,4.2760,3.8907,-0.4200,-0.5600,-0.1400,999.1293,7.9735,4.2162,3.8494,1590579546,N
95,2295131,8.0064,4.2568,3.8859,-0.2100,-0.5600,0.0700,999.1296,7.9735,4.2166,3.8489,1590579546,N
95,2295265,8.0782,4.2449,3.9769,-0.7000,-0.2100,-0.4200,999.1293,7.9697,4.2094,3.8647,1590579546,N
96,2295900,8.0183,4.2855,3.9458,0.4200,-0.8400,-0.0700,999.1295,7.9660,4.2156,3.8654,1590579546,N
95,2297064,8.0853,4.2616,3.8620,0.4200,-0.9100,-0.3500,999.1295,7.9736,4.2167,3.8486,1590579546,N
96,2298355,8.0183,4.3047,3.8740,1.6100,-1.8200,-1.2600,999.1293,7.9711,4.2373,3.8311,1590579546,N
96,2296292,8.0303,4.3956,3.7400,-0.7700,0.1400,0.4200,999.1290,7.9714,4.2560,3.8096,1590579546,N
96,2294624,8.1236,4.2520,3.8644,-2.4500,1.7500,0.4200,999.1292,7.9729,4.2352,3.8298,1590579546,N
96,2294631,7.9011,4.3621,3.9601,-2.2400,0.9100,-0.1400,999.1293,7.9464,4.2511,3.8670,1590579546,N
