0,2161522,-8.1428,4.5751,2.9671,0.4200,-0.7700,0.4900,1000.3332,-8.1146,4.5844,3.0507,1590652246,N
0,2161538,-8.1643,4.5655,2.9480,0.4200,-0.8400,0.4200,1000.3069,-8.1150,4.5915,3.0390,1590652246,N
-3,2161647,-8.1404,4.6062,2.9527,0.4200,-0.7700,0.4200,1000.2831,-8.1165,4.6045,3.0154,1590652246,N
-3,2147483647,-8.1117,4.5990,2.9288,0.4900,-0.7700,0.4200,1000.2618,-8.1148,4.6146,3.0042,1590652246,N
-3,2147483647,-8.1428,4.5823,2.9551,0.4200,-0.8400,0.4900,1000.2430,-8.1148,4.6174,2.9999,1590652246,N
-3,2147483647,-8.1452,4.5535,2.9240,0.2800,-0.8400,0.4200,1000.2258,-8.1193,4.6149,2.9918,1590652246,N
-3,886816,-8.1284,4.6062,2.9815,0.4200,-0.7700,0.4900,1000.2107,-8.1146,4.6215,2.9943,1590652246,N
-3,912844,-8.1069,4.5894,2.9695,0.2800,-0.8400,0.5600,1000.1974,-8.1109,4.6263,2.9967,1590652246,N
-3,1529887,-8.2217,4.5894,2.9791,0.2800,-0.8400,0.4900,1000.1849,-8.1150,4.6206,2.9945,1590652246,N
-3,1625010,-8.1571,4.6086,2.9671,0.4900,-0.7000,0.4200,1000.1729,-8.1141,4.6241,2.9915,1590652247,N
-3,1626786,-8.0997,4.5727,2.9456,0.4900,-0.7000,0.4900,1000.1619,-8.1134,4.6269,2.9892,1590652247,N
-3,1975297,-8.1045,4.5846,2.9623,0.3500,-0.7700,0.5600,1000.1532,-8.1108,4.6303,2.9908,1590652247,N
-3,1981745,-8.1691,4.5488,2.9886,0.4200,-0.8400,0.4900,1000.1457,-8.1142,4.6217,2.9949,1590652247,N
-3,2137256,-8.1380,4.5631,2.9671,0.2800,-0.8400,0.4900,1000.1389,-8.1151,4.6196,2.9959,1590652247,N
-3,2161222,-8.1093,4.6086,2.9599,0.3500,-0.8400,0.6300,1000.1323,-8.1100,4.6287,2.9954,1590652247,N
-3,2217245,-8.0877,4.6349,2.9480,0.3500,-0.7000,0.3500,1000.1262,-8.1052,4.6396,2.9918,1590652247,N
-3,2225803,-8.1212,4.6253,2.9456,0.3500,-0.7700,0.4200,1000.1203,-8.1036,4.6450,2.9877,1590652247,N
-3,2226015,-8.1045,4.6158,2.9575,0.4200,-0.7700,0.4900,1000.1150,-8.1010,4.6496,2.9875,1590652247,N
-3,2225925,-8.1093,4.5799,2.9623,0.2800,-0.8400,0.4200,1000.1108,-8.1020,4.6464,2.9899,1590652247,N
-3,2226023,-8.1380,4.5679,2.9456,0.4200,-0.7700,0.6300,1000.1070,-8.1055,4.6420,2.9871,1590652248,N
-3,2226049,-8.0997,4.6612,2.9551,0.3500,-0.7000,0.5600,1000.1035,-8.0989,4.6547,2.9854,1590652248,N
-3,2225968,-8.1428,4.6134,2.9575,0.4200,-0.7000,0.4900,1000.0995,-8.1002,4.6537,2.9834,1590652248,N
-3,2225969,-8.1667,4.5775,2.9049,0.3500,-0.7000,0.5600,1000.0970,-8.1079,4.6474,2.9724,1590652248,N
-3,2226013,-8.1332,4.6564,2.9767,0.2800,-0.9100,0.4200,1000.0944,-8.1019,4.6545,2.9775,1590652248,N
-3,2225926,-8.1260,4.6229,2.9647,0.4900,-0.7700,0.4900,1000.0921,-8.1000,4.6567,2.9791,1590652248,N
-3,2225976,-8.1069,4.6062,2.9958,0.3500,-0.7000,0.4200,1000.0897,-8.0979,4.6551,2.9874,1590652248,N
-3,2225965,-8.1404,4.5511,2.9504,0.2800,-0.8400,0.4900,1000.0872,-8.1040,4.6447,2.9871,1590652248,N
-3,2225994,-8.0806,4.5392,3.0150,0.1400,-0.7700,0.3500,1000.0848,-8.1039,4.6353,3.0017,1590652248,N
-3,2226068,-8.1476,4.5799,3.0126,0.3500,-0.8400,0.4200,1000.0836,-8.1041,4.6307,3.0083,1590652248,N
-3,2225935,-8.1045,4.5703,2.9360,0.4900,-0.7700,0.3500,1000.0832,-8.1067,4.6310,3.0009,1590652249,N
-3,2226026,-8.0830,4.6086,2.9791,0.2800,-0.7000,0.4900,1000.0825,-8.1021,4.6375,3.0033,1590652249,N
-3,2225905,-8.1858,4.5823,2.9527,0.3500,-0.7700,0.4900,1000.0822,-8.1079,4.6319,2.9964,1590652249,N
-3,2226027,-8.1188,4.5703,2.9623,0.2800,-0.9100,0.4900,1000.0822,-8.1082,4.6308,2.9974,1590652249,N
-3,2225914,-8.0877,4.5703,2.9456,0.4900,-0.7700,0.5600,1000.0818,-8.1074,4.6336,2.9951,1590652249,N
-3,2226041,-8.1547,4.5894,2.9408,0.4200,-0.6300,0.4900,1000.0820,-8.1108,4.6324,2.9877,1590652249,N
-3,2225908,-8.0925,4.6205,2.9791,0.4900,-0.7000,0.4900,1000.0820,-8.1048,4.6406,2.9912,1590652249,N
-3,2225931,-8.1165,4.5655,2.9192,0.4200,-0.7700,0.4200,1000.0814,-8.1089,4.6380,2.9841,1590652249,N
-3,2225952,-8.1260,4.5727,2.9671,0.4200,-0.7000,0.3500,1000.0811,-8.1105,4.6340,2.9859,1590652249,N
-3,2225918,-8.1284,4.6253,2.9480,0.2100,-0.8400,0.5600,1000.0810,-8.1074,4.6406,2.9842,1590652250,N
-3,2225840,-8.1260,4.6014,2.9743,0.4200,-0.8400,0.6300,1000.0803,-8.1047,4.6430,2.9878,1590652250,N
-3,2225882,-8.1045,4.6373,2.9695,0.3500,-0.8400,0.4200,1000.0790,-8.0997,4.6505,2.9898,1590652250,N
-3,2225988,-8.0662,4.5727,2.9145,0.6300,-0.6300,0.2800,1000.0772,-8.1024,4.6503,2.9825,1590652250,N
-3,2225997,-8.1500,4.5296,3.0030,0.4900,-0.7000,0.3500,1000.0768,-8.1084,4.6344,2.9910,1590652250,N
-3,2225978,-8.0949,4.6014,2.9862,0.2100,-0.9800,0.5600,1000.0765,-8.1028,4.6393,2.9986,1590652250,N
-3,2225887,-8.0782,4.5966,2.9432,0.4200,-0.7700,0.4200,1000.0764,-8.1013,4.6440,2.9954,1590652250,N
-3,2225865,-8.0877,4.6158,2.9647,0.4900,-0.8400,0.4200,1000.0758,-8.0977,4.6500,2.9959,1590652250,N
-3,2226039,-8.1547,4.6349,2.9815,0.4200,-0.7700,0.4200,1000.0750,-8.0971,4.6515,2.9953,1590652250,N
-3,2225993,-8.0997,4.5823,2.9456,0.3500,-0.8400,0.4200,1000.0744,-8.0988,4.6497,2.9933,1590652250,N
-3,2225982,-8.1236,4.5870,2.9145,0.4200,-0.8400,0.5600,1000.0740,-8.1021,4.6495,2.9846,1590652250,N
-3,2225937,-8.1452,4.6205,2.9025,0.2800,-0.7700,0.3500,1000.0726,-8.1056,4.6509,2.9731,1590652251,N
-3,2225911,-8.0734,4.5799,2.9838,0.4200,-0.7700,0.3500,1000.0717,-8.1028,4.6493,2.9831,1590652251,N
-3,2225950,-8.1404,4.5679,2.9671,0.3500,-0.8400,0.4900,1000.0719,-8.1057,4.6425,2.9859,1590652251,N
-3,2225997,-8.1260,4.5775,2.9527,0.4200,-0.8400,0.4200,1000.0719,-8.1073,4.6399,2.9856,1590652251,N
-3,2225820,-8.1428,4.5823,2.9647,0.4200,-0.7700,0.4900,1000.0723,-8.1086,4.6371,2.9863,1590652251,N
-3,2225963,-8.1476,4.5320,2.9504,0.4900,-0.7700,0.3500,1000.0733,-8.1153,4.6263,2.9850,1590652251,N
-3,2225956,-8.1117,4.6110,2.9599,0.4200,-0.8400,0.4900,1000.0735,-8.1108,4.6335,2.9860,1590652251,N
-3,2225955,-8.1356,4.5703,2.9623,0.3500,-0.7700,0.3500,1000.0740,-8.1128,4.6294,2.9869,1590652251,N
-3,2225986,-8.1667,4.5870,3.0197,0.4200,-0.8400,0.4200,1000.0741,-8.1114,4.6258,2.9963,1590652251,N
-3,2225910,-8.1117,4.5272,2.9815,0.3500,-0.8400,0.4900,1000.0734,-8.1132,4.6190,3.0017,1590652251,N
-3,2225917,-8.1165,4.5655,2.9671,0.4900,-0.7000,0.4900,1000.0729,-8.1132,4.6198,3.0006,1590652252,N
-3,2226003,-8.1117,4.6205,2.9551,0.5600,-0.7700,0.4900,1000.0721,-8.1088,4.6303,2.9965,1590652252,N
-3,2225929,-8.1260,4.5679,2.9791,0.2800,-0.7700,0.4900,1000.0718,-8.1094,4.6274,2.9993,1590652252,N
-3,2225980,-8.1021,4.5823,2.9623,0.4200,-0.7700,0.3500,1000.0718,-8.1085,4.6293,2.9986,1590652252,N
-3,2225877,-8.0877,4.5870,2.9599,0.4200,-0.7000,0.4200,1000.0713,-8.1067,4.6330,2.9978,1590652252,N
-3,2225921,-8.0758,4.5488,2.9575,0.4200,-0.7700,0.3500,1000.0704,-8.1077,4.6307,2.9988,1590652252,N
-3,2226013,-8.0925,4.5416,3.0102,0.2800,-0.8400,0.4900,1000.0696,-8.1065,4.6256,3.0097,1590652252,N
-3,2225961,-8.0542,4.5846,3.0006,0.3500,-0.7000,0.4900,1000.0698,-8.1009,4.6313,3.0162,1590652252,N
-3,2225992,-8.1117,4.5846,3.0030,0.0700,-0.7000,0.4900,1000.0698,-8.1002,4.6301,3.0199,1590652252,N
-3,2225871,-8.1332,4.6421,2.9527,0.0700,-0.0700,-0.0700,1000.0692,-8.1046,4.6315,3.0058,1590652253,N
-3,2225926,-8.1380,4.5679,2.9838,-0.0700,-0.0700,-0.1400,1000.0691,-8.1132,4.6185,3.0025,1590652253,N
-3,2225944,-8.0686,4.5679,2.9551,-0.0700,-0.0700,-0.1400,1000.0688,-8.1172,4.6144,2.9981,1590652253,N
-3,2225993,-8.0782,4.6014,2.9575,0.0700,-0.0700,0.0700,1000.0687,-8.1171,4.6177,2.9934,1590652253,N
-3,2225922,-8.1476,4.5511,2.9240,-0.1400,-0.2100,-0.0700,1000.0682,-8.1271,4.6067,2.9830,1590652253,N
-3,2225946,-8.1308,4.5535,2.9575,-0.2100,-0.0700,0.0700,1000.0679,-8.1324,4.5988,2.9810,1590652253,N
-3,2225913,-8.0853,4.5727,2.8427,0.1400,0.0700,0.0700,1000.0676,-8.1383,4.6032,2.9579,1590652253,N
-3,2225911,-8.2648,4.5129,2.9551,0.1400,0.0700,0.0700,1000.0682,-8.1531,4.5802,2.9529,1590652253,N
-3,2225851,-8.1045,4.5775,2.9408,0.0700,0.1400,0.0700,1000.0693,-8.1511,4.5841,2.9521,1590652253,N
-3,2225940,-8.1619,4.5535,2.9815,0.0700,-0.0700,0.0700,1000.0698,-8.1520,4.5788,2.9581,1590652253,N
-3,2225837,-8.1165,4.5799,2.9838,-0.1400,-0.0700,0.0700,1000.0701,-8.1479,4.5812,2.9656,1590652254,N
-3,2225964,-8.1428,4.5775,2.9647,-0.1400,-0.0700,0.0700,1000.0705,-8.1474,4.5813,2.9669,1590652254,N
-3,2225864,-8.1595,4.6445,2.9551,-0.1400,-0.0700,0.0700,1000.0717,-8.1433,4.5907,2.9634,1590652254,N
-3,2225857,-8.1523,4.5894,2.9910,-0.1400,0.0700,-0.0700,1000.0728,-8.1434,4.5877,2.9679,1590652254,N
-3,2225844,-8.1332,4.5870,2.9982,-0.0700,-0.0700,-0.0700,1000.0731,-8.1414,4.5870,2.9746,1590652254,N
-3,2225927,-8.0710,4.6062,2.9623,-0.0700,-0.0700,-0.0700,1000.0734,-8.1362,4.5953,2.9760,1590652254,N
-3,2225857,-8.0973,4.5894,2.9743,-0.0700,-0.0700,-0.1400,1000.0742,-8.1347,4.5964,2.9783,1590652254,N
-3,2225935,-8.1117,4.6158,2.9192,-0.0700,-0.0700,-0.0700,1000.0744,-8.1348,4.6024,2.9688,1590652254,N
-3,2225990,-8.0925,4.5799,2.9719,-0.0700,0.1400,-0.0700,1000.0744,-8.1348,4.6007,2.9713,1590652254,N
-3,2225848,-8.1117,4.5870,2.9192,-0.1400,0.0700,-0.0700,1000.0735,-8.1379,4.6005,2.9632,1590652254,N
-3,2225927,-8.1141,4.5703,2.9647,0.0700,0.0700,-0.1400,1000.0728,-8.1396,4.5966,2.9646,1590652254,N
-3,2225928,-8.1236,4.5918,3.0078,-0.2100,-0.0700,0.0700,1000.0723,-8.1363,4.5958,2.9747,1590652255,N
-3,2225842,-8.1643,4.6014,2.9862,-0.2100,0.0700,-0.0700,1000.0726,-8.1380,4.5925,2.9754,1590652255,N
-3,2225934,-8.1308,4.6038,2.9623,-0.0700,-0.0700,-0.1400,1000.0731,-8.1377,4.5942,2.9735,1590652255,N
-3,2225906,-8.1284,4.5511,2.9049,-0.1400,-0.0700,-0.1400,1000.0730,-8.1444,4.5888,2.9634,1590652255,N
-3,2225954,-8.1500,4.6062,2.9192,-0.0700,-0.0700,-0.1400,1000.0732,-8.1460,4.5913,2.9551,1590652255,N
-3,2225911,-8.0949,4.5703,2.9240,-0.0700,-0.0700,-0.0700,1000.0733,-8.1461,4.5924,2.9532,1590652255,N
-3,2225937,-8.1260,4.6062,2.9527,-0.0700,0.2100,-0.0700,1000.0729,-8.1452,4.5945,2.9524,1590652255,N
-3,2226033,-8.1643,4.5272,2.9360,-0.1400,-0.0700,-0.0700,1000.0729,-8.1526,4.5821,2.9513,1590652255,N
-3,2225998,-8.1045,4.6397,2.9695,-0.0700,0.0700,-0.0700,1000.0727,-8.1450,4.5932,2.9550,1590652255,N
-3,2225949,-8.1571,4.5775,2.9767,-0.0700,0.0700,-0.0700,1000.0728,-8.1466,4.5881,2.9585,1590652255,N
-3,2225911,-8.0973,4.6110,2.9456,0.0700,0.0700,-0.0700,1000.0720,-8.1430,4.5954,2.9571,1590652256,N
-3,2225922,-8.1045,4.5918,2.9647,0.0700,-0.0700,-0.0700,1000.0716,-8.1404,4.5977,2.9607,1590652256,N
-3,2225934,-8.1332,4.5799,2.9480,-0.1400,-0.0700,-0.0700,1000.0711,-8.1421,4.5950,2.9601,1590652256,N
-3,2225941,-8.1547,4.6086,2.9910,-0.1400,-0.0700,-0.2100,1000.0708,-8.1411,4.5934,2.9653,1590652256,N
-3,2225949,-8.1284,4.5751,2.9408,-0.1400,-0.0700,-0.0700,1000.0707,-8.1431,4.5914,2.9629,1590652256,N
-3,2225869,-8.1141,4.6229,2.9958,0.0700,-0.0700,-0.0700,1000.0707,-8.1371,4.5978,2.9695,1590652256,N
-3,2225940,-8.1332,4.5583,2.9862,0.0700,-0.0700,-0.0700,1000.0697,-8.1390,4.5915,2.9740,1590652256,N
-3,2226018,-8.1093,4.5703,2.9312,0.0700,0.0700,-0.0700,1000.0688,-8.1416,4.5912,2.9675,1590652256,N
-3,2225922,-8.1045,4.5440,2.9097,0.0700,0.0700,-0.0700,1000.0687,-8.1465,4.5878,2.9593,1590652256,N
-3,2225858,-8.0973,4.5296,2.8762,0.1400,0.0700,-0.0700,1000.0694,-8.1527,4.5847,2.9471,1590652257,N
-3,2225942,-8.1212,4.6110,3.0030,-0.0700,0.0700,-0.0700,1000.0693,-8.1466,4.5886,2.9577,1590652257,N
-3,2225934,-8.1763,4.6038,2.9815,0.1400,0.1400,-0.0700,1000.0699,-8.1469,4.5875,2.9586,1590652257,N
-3,2225877,-8.0925,4.5679,2.9456,-0.0700,0.0700,-0.0700,1000.0704,-8.1464,4.5880,2.9592,1590652257,N
-3,2225905,-8.1500,4.6038,2.9480,-0.0700,0.2100,-0.0700,1000.0720,-8.1474,4.5888,2.9552,1590652257,N
-3,2225918,-8.1667,4.6253,2.9527,-0.1400,0.0700,-0.1400,1000.0735,-8.1470,4.5912,2.9525,1590652257,N
-3,2225899,-8.1356,4.6397,2.9767,-0.0700,0.0700,-0.1400,1000.0741,-8.1424,4.5974,2.9557,1590652257,N
-3,2225819,-8.0925,4.6110,2.9647,-0.0700,0.0700,-0.0700,1000.0743,-8.1385,4.6021,2.9591,1590652257,N
-3,2225869,-8.1141,4.5823,2.9336,-0.0700,0.0700,-0.0700,1000.0737,-8.1405,4.6005,2.9559,1590652257,N
-3,2225868,-8.0614,4.6229,2.9025,-0.0700,0.0700,-0.0700,1000.0734,-8.1373,4.6106,2.9491,1590652257,N
-3,2225909,-8.1308,4.5775,2.9527,-0.0700,-0.0700,-0.0700,1000.0728,-8.1393,4.6053,2.9517,1590652257,N
-3,2225919,-8.1045,4.5823,2.9025,-0.0700,-0.0700,-0.0700,1000.0720,-8.1415,4.6053,2.9457,1590652258,N
-3,2225885,-8.0949,4.5535,2.9049,-0.0700,-0.0700,-0.0700,1000.0718,-8.1448,4.6015,2.9426,1590652258,N
-3,2225855,-8.1452,4.5775,2.9838,-0.0700,-0.1400,-0.0700,1000.0725,-8.1444,4.5963,2.9519,1590652258,N
-3,2225899,-8.1141,4.6277,2.9169,-0.1400,-0.0700,-0.0700,1000.0730,-8.1419,4.6038,2.9470,1590652258,N
-3,2225910,-8.0949,4.5488,2.9336,-0.0700,-0.1400,-0.0700,1000.0734,-8.1437,4.5989,2.9495,1590652258,N
-3,2225919,-8.1236,4.6038,2.9384,-0.0700,-0.0700,-0.0700,1000.0737,-8.1427,4.6011,2.9490,1590652258,N
-3,2225901,-8.1141,4.6062,2.9575,-0.0700,-0.1400,-0.0700,1000.0744,-8.1399,4.6036,2.9529,1590652258,N
-3,2225987,-8.1308,4.5655,2.9551,0.0700,-0.2100,-0.1400,1000.0754,-8.1417,4.5984,2.9559,1590652258,N
-3,2225919,-8.1523,4.5559,2.8857,0.0700,-0.0700,-0.1400,1000.0765,-8.1495,4.5925,2.9438,1590652258,N
-3,2225926,-8.1523,4.5775,2.9551,0.0700,-0.0700,-0.1400,1000.0779,-8.1505,4.5891,2.9461,1590652259,N
-3,2225980,-8.1691,4.5966,2.9288,-0.0700,-0.0700,-0.1400,1000.0784,-8.1523,4.5883,2.9424,1590652259,N
-3,2225921,-8.1523,4.5799,2.9599,-0.0700,-0.0700,-0.0700,1000.0784,-8.1522,4.5860,2.9464,1590652259,N
-3,2225905,-8.1500,4.5894,2.9551,-0.0700,-0.0700,-0.1400,1000.0784,-8.1517,4.5854,2.9485,1590652259,N
-3,2225903,-8.1308,4.5655,2.9862,0.0700,-0.1400,-0.1400,1000.0776,-8.1500,4.5827,2.9575,1590652259,N
-3,2225901,-8.1500,4.5799,2.9838,-0.0700,-0.0700,0.0700,1000.0767,-8.1483,4.5820,2.9632,1590652259,N
-3,2225827,-8.1212,4.5440,2.9504,0.0700,-0.0700,0.0700,1000.0760,-8.1495,4.5796,2.9636,1590652259,N
-3,2225950,-8.1643,4.6062,2.9599,0.0700,-0.1400,-0.1400,1000.0746,-8.1485,4.5825,2.9620,1590652259,N
-3,2225911,-8.0782,4.5823,2.9456,-0.0700,-0.0700,-0.0700,1000.0732,-8.1450,4.5879,2.9632,1590652259,N
-3,2225891,-8.0806,4.6181,2.9838,-0.0700,-0.0700,-0.0700,1000.0721,-8.1377,4.5966,2.9699,1590652259,N
-3,2225855,-8.0973,4.5703,2.9527,-0.0700,0.0700,-0.0700,1000.0719,-8.1388,4.5950,2.9692,1590652260,N
-3,2225878,-8.1069,4.5823,2.9551,-0.0700,-0.0700,-0.0700,1000.0712,-8.1386,4.5954,2.9693,1590652260,N
-3,2225891,-8.1476,4.5942,2.9169,-0.1400,-0.1400,0.0700,1000.0707,-8.1410,4.5965,2.9608,1590652260,N
-3,2225907,-8.1212,4.5368,2.9599,-0.0700,-0.0700,-0.1400,1000.0704,-8.1449,4.5877,2.9639,1590652260,N
-3,2225963,-8.0853,4.6038,2.9719,-0.0700,0.0700,-0.1400,1000.0706,-8.1406,4.5930,2.9674,1590652260,N
-3,2225876,-8.1117,4.6205,2.9838,-0.1400,-0.0700,-0.0700,1000.0714,-8.1359,4.5983,2.9719,1590652260,N
-3,2225854,-8.1523,4.5535,2.9647,-0.1400,-0.1400,0.0700,1000.0721,-8.1400,4.5907,2.9726,1590652260,N
-3,2225949,-8.1021,4.6014,2.9551,0.0700,-0.0700,-0.0700,1000.0724,-8.1376,4.5959,2.9712,1590652260,N
-3,2225835,-8.1571,4.5368,2.9623,0.0700,-0.2100,-0.0700,1000.0738,-8.1431,4.5860,2.9714,1590652260,N
-3,2225903,-8.0423,4.6086,2.9384,-0.0700,-0.0700,-0.0700,1000.0745,-8.1368,4.5978,2.9704,1590652260,N
-3,2225906,-8.1739,4.6158,2.9575,0.0700,-0.0700,-0.0700,1000.0759,-8.1382,4.5981,2.9659,1590652261,N
-3,2225919,-8.1308,4.5129,2.9504,0.0700,-0.0700,-0.0700,1000.0763,-8.1452,4.5858,2.9660,1590652261,N
-3,2225919,-8.1667,4.5870,2.9384,0.0700,-0.0700,-0.0700,1000.0776,-8.1477,4.5852,2.9600,1590652261,N
-3,2225874,-8.0925,4.5894,3.0006,-0.0700,-0.0700,-0.0700,1000.0787,-8.1419,4.5885,2.9707,1590652261,N
-3,2225948,-8.1260,4.5918,2.9671,-0.0700,-0.1400,-0.0700,1000.0787,-8.1406,4.5901,2.9718,1590652261,N
-3,2225792,-8.1117,4.5990,3.0006,-0.0700,-0.1400,-0.1400,1000.0789,-8.1367,4.5922,2.9792,1590652261,N
-3,2225842,-8.1069,4.6062,2.9695,-0.0700,-0.1400,-0.1400,1000.0788,-8.1343,4.5962,2.9796,1590652261,N
-3,2225953,-8.1476,4.5344,2.9240,0.0700,-0.1400,-0.1400,1000.0785,-8.1427,4.5869,2.9711,1590652261,N
-3,2225896,-8.1452,4.6110,2.9958,-0.1400,-0.1400,-0.0700,1000.0785,-8.1395,4.5892,2.9761,1590652261,N
-3,2225906,-8.0662,4.5918,2.9719,-0.1400,-0.1400,-0.1400,1000.0790,-8.1351,4.5945,2.9802,1590652261,N
-3,2225893,-8.0973,4.5918,2.9599,-0.1400,-0.1400,-0.0700,1000.0786,-8.1338,4.5970,2.9798,1590652262,N
-3,2225896,-8.1069,4.5942,2.9169,-0.1400,-0.0700,-0.0700,1000.0778,-8.1356,4.5997,2.9706,1590652262,N
-3,2225854,-8.1069,4.6253,2.9336,-0.1400,-0.1400,0.0700,1000.0771,-8.1329,4.6075,2.9661,1590652262,N
-3,2225805,-8.1045,4.6110,2.9432,-0.1400,-0.1400,-0.0700,1000.0771,-8.1318,4.6104,2.9646,1590652262,N
-3,2225873,-8.1308,4.6110,2.9671,-0.1400,-0.1400,-0.0700,1000.0759,-8.1314,4.6099,2.9664,1590652262,N
-3,2225964,-8.1117,4.5727,2.9169,-0.1400,-0.1400,-0.0700,1000.0749,-8.1354,4.6065,2.9608,1590652262,N
-3,2225897,-8.0782,4.5631,2.9145,-0.1400,-0.1400,-0.0700,1000.0746,-8.1373,4.6050,2.9577,1590652262,N
-3,2225931,-8.1715,4.6014,2.9192,-0.1400,-0.1400,-0.1400,1000.0732,-8.1418,4.6019,2.9504,1590652262,N
-3,2225919,-8.0997,4.5918,2.9336,-0.1400,-0.1400,-0.0700,1000.0715,-8.1406,4.6035,2.9510,1590652262,N
-3,2225931,-8.1284,4.5799,2.9551,-0.1400,-0.1400,-0.0700,1000.0699,-8.1413,4.6001,2.9544,1590652262,N
-3,2225921,-8.1165,4.5894,2.9671,-0.1400,0.0700,-0.0700,1000.0698,-8.1408,4.5987,2.9581,1590652263,N
-3,2225838,-8.0925,4.5823,2.9288,-0.1400,-0.0700,-0.0700,1000.0699,-8.1407,4.5999,2.9565,1590652263,N
-3,2225846,-8.1284,4.6134,2.9599,-0.0700,-0.0700,-0.0700,1000.0698,-8.1387,4.6023,2.9580,1590652263,N
-3,2226022,-8.0997,4.6014,3.0006,-0.0700,0.1400,-0.0700,1000.0698,-8.1353,4.6027,2.9669,1590652263,N
-3,2225835,-8.1212,4.5631,2.9767,-0.0700,-0.0700,-0.1400,1000.0701,-8.1374,4.5963,2.9710,1590652263,N
-3,2225883,-8.1188,4.6062,2.9719,-0.0700,-0.0700,-0.0700,1000.0691,-8.1355,4.5987,2.9725,1590652263,N
-3,2225932,-8.1476,4.5535,2.9288,-0.0700,-0.0700,-0.1400,1000.0679,-8.1424,4.5909,2.9657,1590652263,N
-3,2225847,-8.1404,4.6038,2.9838,-0.0700,-0.0700,-0.1400,1000.0677,-8.1407,4.5915,2.9692,1590652263,N
-3,2225866,-8.1523,4.6158,2.9671,0.0700,0.1400,-0.0700,1000.0684,-8.1406,4.5937,2.9663,1590652263,N
-3,2225976,-8.1332,4.5583,2.9575,0.0700,-0.0700,-0.0700,1000.0693,-8.1433,4.5890,2.9662,1590652263,N
-3,2225818,-8.1093,4.5751,2.9910,-0.1400,-0.0700,-0.1400,1000.0696,-8.1415,4.5875,2.9736,1590652263,N
-3,2225925,-8.1452,4.5320,2.9862,-0.0700,0.0700,-0.0700,1000.0702,-8.1461,4.5770,2.9769,1590652264,N
-3,2225803,-8.1356,4.5918,2.9743,-0.0700,0.0700,-0.1400,1000.0711,-8.1455,4.5786,2.9761,1590652264,N
-3,2225937,-8.1452,4.5966,2.9671,-0.0700,-0.0700,-0.1400,1000.0712,-8.1449,4.5807,2.9745,1590652264,N
-3,2225899,-8.1117,4.6086,2.9886,-0.0700,-0.0700,-0.1400,1000.0709,-8.1404,4.5862,2.9785,1590652264,N
-3,2225844,-8.1141,4.5942,2.9480,0.0700,-0.0700,-0.0700,1000.0701,-8.1396,4.5904,2.9741,1590652264,N
-3,2225818,-8.1332,4.5392,2.9767,-0.1400,0.0700,-0.2100,1000.0693,-8.1445,4.5804,2.9761,1590652264,N
-3,2225835,-8.1476,4.5894,2.9145,-0.1400,0.0700,-0.2100,1000.0684,-8.1486,4.5810,2.9641,1590652264,N
-3,2225959,-8.0925,4.5966,3.0030,-0.2100,-0.0700,-0.2100,1000.0679,-8.1428,4.5846,2.9744,1590652264,N
-3,2225975,-8.1141,4.6229,2.9934,-0.2100,0.2100,-0.2100,1000.0679,-8.1392,4.5890,2.9772,1590652264,N
-3,2225911,-8.0949,4.5894,2.9719,-0.2100,0.0700,-0.0700,1000.0679,-8.1376,4.5911,2.9786,1590652265,N
-3,2225891,-8.1188,4.5918,2.9480,-0.1400,0.0700,-0.0700,1000.0678,-8.1387,4.5922,2.9738,1590652265,N
-3,2225873,-8.0782,4.5846,2.9647,-0.1400,0.0700,-0.1400,1000.0681,-8.1371,4.5941,2.9752,1590652265,N
-3,2225763,-8.0806,4.6038,2.9001,-0.0700,0.0700,-0.1400,1000.0677,-8.1377,4.6006,2.9636,1590652265,N
-3,2225864,-8.0614,4.5679,2.9527,-0.0700,-0.0700,-0.1400,1000.0679,-8.1364,4.6007,2.9669,1590652265,N
-3,2225907,-8.1069,4.5631,2.8929,0.0700,-0.0700,-0.0700,1000.0676,-8.1412,4.5993,2.9561,1590652265,N
-3,2225845,-8.0949,4.5727,2.9623,0.0700,0.0700,-0.1400,1000.0668,-8.1409,4.5976,2.9594,1590652265,N
-3,2225876,-8.1787,4.5823,2.9336,-0.0700,0.0700,-0.0700,1000.0666,-8.1465,4.5919,2.9529,1590652265,N
-3,2225754,-8.1308,4.5966,2.9192,-0.0700,-0.0700,-0.0700,1000.0667,-8.1469,4.5943,2.9480,1590652265,N
-3,2225841,-8.1165,4.5990,2.9384,0.0700,-0.0700,-0.0700,1000.0665,-8.1451,4.5977,2.9478,1590652265,N
-3,2225854,-8.0471,4.5894,2.9408,-0.0700,0.0700,-0.2800,1000.0659,-8.1416,4.6017,2.9510,1590652266,N
