0,2467112,0.8997,-7.1450,6.6640,-0.9800,-0.7000,0.4200,998.8169,0.8992,-7.1413,6.6606,1590575817,S
0,2474334,1.0337,-7.1450,6.7095,1.5400,-0.0700,-0.7000,998.8178,0.9291,-7.1173,6.6821,1590575817,S
0,2475186,1.1342,-7.0516,6.7071,0.0700,0.2100,-0.7000,998.8193,0.9729,-7.0943,6.7004,1590575818,S
0,2474336,1.0624,-7.0923,6.7789,-0.4200,0.3500,0.2100,998.8202,0.9868,-7.0864,6.7067,1590575818,S
0,2147483647,0.9835,-7.0947,6.7023,-0.2100,-0.0700,-0.1400,998.8213,0.9871,-7.0881,6.7049,1590575818,S
0,2147483647,1.0433,-7.1378,6.7190,2.8000,0.5600,-1.2600,998.8224,1.0011,-7.0527,6.7400,1590575818,S
0,1032257,1.1222,-7.0397,6.8172,3.0800,0.2100,-1.2600,998.8228,1.0295,-7.0062,6.7841,1590575818,S
0,1223239,1.1151,-7.0875,6.8219,0.6300,0.1400,-0.3500,998.8239,1.0456,-7.0000,6.7880,1590575818,S
0,1227774,1.1103,-7.0493,6.7167,-0.0700,0.2800,-0.3500,998.8246,1.0591,-7.0050,6.7807,1590575818,S
0,1928845,1.1198,-7.0301,6.8315,0.4900,0.1400,-0.3500,998.8258,1.0710,-6.9933,6.7909,1590575818,S
0,1942861,1.1174,-6.9966,6.7621,0.1400,0.1400,-0.1400,998.8272,1.0806,-6.9921,6.7906,1590575818,S
0,1941081,1.1198,-7.0397,6.8172,0.2800,0.0700,-0.1400,998.8286,1.0875,-6.9897,6.7920,1590575818,S
0,1940025,1.1079,-7.0708,6.8195,-0.2100,0.0700,0.1400,998.8286,1.0888,-6.9968,6.7845,1590575819,S
0,1940293,1.0504,-7.0277,6.7669,0.2800,0.2800,-0.3500,998.8279,1.0814,-6.9938,6.7888,1590575819,S
0,2117148,1.0744,-7.0349,6.8387,-0.5600,0.2800,0.1400,998.8279,1.0766,-6.9953,6.7880,1590575819,S
0,2121204,1.0265,-7.1043,6.7980,-0.0700,0.1400,0.1400,998.8279,1.0636,-7.0060,6.7790,1590575819,S
0,2146557,1.0816,-7.0062,6.8650,-0.4900,0.1400,0.2100,998.8285,1.0641,-7.0013,6.7838,1590575819,S
0,2148730,1.0672,-7.0086,6.8315,-0.2800,-0.1400,0.4200,998.8291,1.0624,-7.0051,6.7802,1590575819,S
0,2150623,1.0337,-7.1210,6.8148,-0.4200,-0.0700,0.3500,998.8293,1.0531,-7.0205,6.7656,1590575819,S
0,2151783,1.0600,-7.0469,6.8411,-0.4200,0.0700,0.4200,998.8295,1.0505,-7.0222,6.7643,1590575819,S
0,2150179,1.1294,-7.0947,6.7669,-0.6300,-0.2100,0.4200,998.8298,1.0637,-7.0385,6.7453,1590575819,S
0,2149321,1.0528,-7.0899,6.7741,-0.4200,-0.2100,0.4200,998.8301,1.0592,-7.0502,6.7338,1590575819,S
0,2149830,1.0433,-7.1043,6.7741,-0.2800,-0.0700,0.2800,998.8305,1.0535,-7.0572,6.7273,1590575820,S
0,2150579,1.1127,-7.0516,6.7597,-0.3500,-0.1400,0.2800,998.8299,1.0640,-7.0591,6.7236,1590575820,S
0,2151307,1.0624,-7.0684,6.8219,-0.3500,-0.1400,0.2800,998.8294,1.0613,-7.0571,6.7262,1590575820,S
0,2152368,1.0576,-7.0660,6.8698,-0.2800,-0.2100,0.1400,998.8293,1.0586,-7.0494,6.7347,1590575820,S
0,2153611,1.0911,-7.0851,6.8004,-0.3500,-0.2100,0.2100,998.8286,1.0634,-7.0524,6.7308,1590575820,S
0,2154642,1.0863,-7.0828,6.8172,-0.5600,0.0700,0.3500,998.8286,1.0640,-7.0531,6.7299,1590575820,S
0,2153009,1.1031,-7.0564,6.8267,-0.4900,-0.0700,0.1400,998.8290,1.0698,-7.0485,6.7338,1590575820,S
0,2150869,1.0887,-7.0158,6.8100,-0.4900,-0.0700,0.2800,998.8286,1.0718,-7.0443,6.7379,1590575820,S
0,2150592,1.0839,-7.0469,6.8267,-0.2800,-0.1400,0.1400,998.8284,1.0728,-7.0403,6.7419,1590575820,S
0,2150890,1.0863,-7.0469,6.8195,-0.2800,-0.2100,0.2100,998.8286,1.0741,-7.0392,6.7429,1590575820,S
0,2151400,1.0457,-7.0828,6.8387,-0.7700,-0.2100,0.5600,998.8283,1.0646,-7.0476,6.7356,1590575821,S
0,2152362,1.1366,-7.0397,6.8100,-1.6100,-0.2800,0.6300,998.8287,1.0758,-7.0579,6.7231,1590575821,S
0,2153031,1.0481,-7.0971,6.7573,-1.1200,-0.2800,0.2100,998.8292,1.0694,-7.0708,6.7105,1590575821,S
0,2153508,1.1151,-7.1617,6.7837,-0.4900,0.0700,-0.8400,998.8298,1.0797,-7.0648,6.7152,1590575821,S
0,2152791,1.0959,-7.0421,6.7549,0.4200,0.4200,-1.4700,998.8304,1.0882,-7.0358,6.7441,1590575821,S
0,2149268,1.0696,-7.0851,6.7669,-0.7000,-0.1400,-0.8400,998.8311,1.0882,-7.0353,6.7447,1590575821,S
0,2147190,1.0481,-7.0995,6.8148,0.3500,-0.3500,-0.8400,998.8315,1.0842,-7.0273,6.7537,1590575821,S
0,2147353,1.0600,-7.1067,6.8004,-0.3500,-0.3500,0.2100,998.8322,1.0781,-7.0386,6.7429,1590575821,S
0,2148057,1.1198,-7.0923,6.7741,-0.0700,-0.3500,0.2100,998.8328,1.0855,-7.0462,6.7338,1590575821,S
0,2148631,1.1797,-7.0995,6.7884,0.9800,-0.1400,0.1400,998.8330,1.1023,-7.0411,6.7363,1590575821,S
0,2149467,1.1342,-7.0684,6.8243,-0.4900,-0.0700,0.2800,998.8328,1.1057,-7.0413,6.7356,1590575822,S
0,2150081,1.1390,-7.1426,6.8219,-0.2800,-0.3500,1.0500,998.8321,1.1055,-7.0583,6.7178,1590575822,S
0,2151185,1.1653,-7.1354,6.7310,-0.5600,0.0700,0.5600,998.8304,1.1126,-7.0722,6.7020,1590575822,S
0,2149627,1.1198,-7.0516,6.7813,1.4000,-0.0700,0.7000,998.8304,1.1100,-7.0616,6.7136,1590575822,S
0,2147110,1.1174,-7.0995,6.8243,-0.0700,0.0700,0.4900,998.8302,1.1063,-7.0593,6.7166,1590575822,S
0,2146163,1.1127,-7.0804,6.7717,1.0500,-0.2100,0.6300,998.8311,1.1042,-7.0580,6.7184,1590575822,S
0,2146625,1.1318,-7.0229,6.8028,-0.0700,-0.3500,0.2100,998.8325,1.1095,-7.0516,6.7241,1590575822,S
0,2146486,1.0959,-6.9918,6.7621,0.3500,-0.1400,0.3500,998.8336,1.1061,-7.0452,6.7314,1590575822,S
0,2146914,1.1270,-7.1091,6.8148,0.0700,-0.2100,0.4200,998.8340,1.1068,-7.0488,6.7275,1590575822,S
0,2147412,1.0361,-7.0588,6.8195,-0.0700,-0.0700,0.2800,998.8344,1.0902,-7.0464,6.7327,1590575822,S
0,2147934,1.0528,-7.0660,6.8052,0.2800,-0.2100,0.5600,998.8348,1.0796,-7.0483,6.7324,1590575823,S
0,2147889,1.1151,-7.0732,6.8148,0.2100,-0.1400,0.4900,998.8351,1.0832,-7.0473,6.7329,1590575823,S
0,2144712,1.1533,-7.0732,6.7741,-0.2100,-0.2100,0.4900,998.8344,1.0944,-7.0530,6.7251,1590575823,S
0,2142405,1.0959,-7.0564,6.7573,0.1400,-0.3500,0.4900,998.8331,1.0933,-7.0579,6.7202,1590575823,S
0,2142202,1.1246,-7.1115,6.7262,-0.7000,-0.3500,0.6300,998.8315,1.0969,-7.0763,6.7002,1590575823,S
0,2142140,1.0911,-7.0780,6.7621,0.4200,0.2100,0.4900,998.8304,1.0914,-7.0712,6.7065,1590575823,S
0,2142152,1.1007,-7.1091,6.8124,0.6300,-0.2100,0.4900,998.8302,1.0895,-7.0677,6.7105,1590575823,S
0,2142817,1.0433,-7.1043,6.7693,-0.1400,-0.1400,0.1400,998.8308,1.0789,-7.0701,6.7097,1590575823,S
0,2143686,1.1486,-7.1091,6.8435,0.3500,0.1400,0.0700,998.8306,1.0889,-7.0566,6.7222,1590575823,S
0,2144464,1.1366,-7.0373,6.8052,0.2800,0.0700,0.4200,998.8300,1.0949,-7.0478,6.7306,1590575823,S
0,2142641,1.0648,-7.1234,6.7980,0.2100,0.0700,0.2800,998.8298,1.0851,-7.0501,6.7298,1590575823,S
0,2139961,1.0911,-7.1378,6.7980,0.2100,-0.0700,0.2800,998.8301,1.0828,-7.0541,6.7259,1590575824,S
0,2138815,1.0576,-7.0540,6.8004,0.1400,-0.0700,0.3500,998.8303,1.0753,-7.0509,6.7304,1590575824,S
0,2138882,1.0839,-7.0612,6.7693,-0.0700,-0.0700,-0.0700,998.8312,1.0769,-7.0483,6.7329,1590575824,S
0,2139040,1.0839,-7.0828,6.7789,-0.3500,-0.0700,0.2100,998.8310,1.0763,-7.0521,6.7290,1590575824,S
0,2139196,1.0959,-7.1019,6.8243,0.0700,-0.0700,0.1400,998.8300,1.0776,-7.0490,6.7321,1590575824,S
0,2139892,1.0122,-7.0995,6.7860,0.5600,0.1400,0.1400,998.8290,1.0618,-7.0464,6.7373,1590575824,S
0,2140711,1.0983,-7.0708,6.7190,0.2800,0.1400,-0.0700,998.8276,1.0686,-7.0461,6.7366,1590575824,S
0,2141063,1.0983,-7.0660,6.7932,0.4200,0.1400,0.0700,998.8267,1.0723,-7.0387,6.7437,1590575824,S
0,2138088,1.1007,-7.0373,6.7813,-0.1400,0.0700,-0.1400,998.8262,1.0777,-7.0330,6.7487,1590575824,S
0,2135904,1.0911,-7.1210,6.8076,0.2800,0.0700,-0.2100,998.8271,1.0788,-7.0308,6.7509,1590575825,S
0,2135570,1.1318,-7.0588,6.7980,0.0700,0.1400,-0.1400,998.8274,1.0881,-7.0247,6.7557,1590575825,S
0,2135464,1.0792,-7.0636,6.8530,0.0700,-0.1400,-0.1400,998.8276,1.0857,-7.0185,6.7625,1590575825,S
0,2135531,1.1462,-7.0971,6.8195,0.0700,0.0700,-0.1400,998.8278,1.0958,-7.0170,6.7625,1590575825,S
0,2136106,1.0959,-7.1115,6.8195,-0.1400,-0.1400,-0.2100,998.8282,1.0951,-7.0205,6.7590,1590575825,S
0,2136836,1.1103,-7.0636,6.7884,0.0700,-0.0700,-0.1400,998.8282,1.0980,-7.0203,6.7587,1590575825,S
0,2137717,1.1055,-7.0205,6.8243,0.0700,-0.0700,-0.1400,998.8293,1.0995,-7.0125,6.7666,1590575825,S
0,2136932,1.0409,-7.0732,6.8219,0.2100,-0.0700,-0.2100,998.8309,1.0876,-7.0109,6.7701,1590575825,S
0,2133953,1.0672,-7.0564,6.7669,0.1400,-0.0700,-0.2800,998.8318,1.0846,-7.0127,6.7687,1590575825,S
0,2132521,1.0744,-7.1091,6.7741,0.4200,-0.1400,-0.1400,998.8320,1.0824,-7.0189,6.7627,1590575825,S
0,2132789,1.0337,-6.9894,6.8172,0.0700,-0.1400,-0.4200,998.8319,1.0752,-7.0078,6.7753,1590575826,S
0,2133096,1.0959,-7.0540,6.7932,-0.0700,-0.1400,0.0700,998.8315,1.0786,-7.0128,6.7696,1590575826,S
0,2133705,1.1198,-7.0995,6.8554,-0.3500,0.0700,0.0700,998.8310,1.0833,-7.0145,6.7671,1590575826,S
0,2134520,1.1151,-7.0828,6.8028,-1.1200,-0.4900,0.3500,998.8308,1.0884,-7.0327,6.7474,1590575826,S
0,2135543,1.0648,-7.0804,6.7813,-0.9100,-0.0700,0.2100,998.8314,1.0818,-7.0430,6.7377,1590575826,S
0,2136436,1.0385,-7.1019,6.8124,0.4200,0.1400,-0.1400,998.8322,1.0713,-7.0365,6.7461,1590575826,S
0,2135160,1.1414,-7.0612,6.8028,0.5600,0.2800,-0.1400,998.8326,1.0832,-7.0244,6.7568,1590575826,S
0,2132560,1.1103,-7.0612,6.7502,0.2800,-0.0700,0.0700,998.8334,1.0881,-7.0279,6.7524,1590575826,S
0,2131807,1.0481,-7.1019,6.7932,0.1400,0.1400,-0.2100,998.8337,1.0788,-7.0271,6.7547,1590575826,S
0,2132023,1.0935,-7.0875,6.7765,0.7000,-0.1400,-0.0700,998.8333,1.0815,-7.0268,6.7546,1590575826,S
0,2132189,1.1079,-7.0875,6.8172,0.2100,-0.1400,-0.0700,998.8331,1.0858,-7.0254,6.7554,1590575827,S
0,2132919,1.0863,-7.0612,6.7741,0.1400,-0.1400,-0.0700,998.8326,1.0861,-7.0267,6.7539,1590575827,S
0,2133496,1.0528,-7.0469,6.8219,0.3500,0.1400,-0.1400,998.8322,1.0782,-7.0175,6.7648,1590575827,S
0,2134508,1.0911,-7.0828,6.7693,0.0700,0.0700,-0.0700,998.8322,1.0797,-7.0213,6.7606,1590575827,S
0,2134612,1.1151,-7.0325,6.7837,0.2100,0.0700,-0.0700,998.8318,1.0862,-7.0168,6.7642,1590575827,S
0,2131677,1.0792,-7.0349,6.8291,0.2100,0.0700,-0.1400,998.8320,1.0839,-7.0088,6.7729,1590575827,S
0,2129943,1.0289,-7.0205,6.8124,0.2100,-0.0700,-0.1400,998.8322,1.0733,-7.0048,6.7787,1590575827,S
0,2130011,1.0792,-7.0612,6.8339,0.2100,-0.0700,0.0700,998.8331,1.0727,-7.0049,6.7787,1590575827,S
0,2130373,1.0481,-7.1163,6.8172,0.1400,-0.3500,-0.4900,998.8336,1.0697,-7.0095,6.7745,1590575827,S
0,2131466,1.0983,-7.1498,6.8172,0.7700,-0.6300,-0.7700,998.8337,1.0794,-7.0113,6.7710,1590575827,S
0,2133556,1.0792,-7.0373,6.8148,1.5400,-0.4900,-1.5400,998.8336,1.0883,-6.9879,6.7937,1590575827,S
0,2135309,1.2586,-6.9368,6.8339,1.4700,-0.1400,-1.1900,998.8335,1.1287,-6.9555,6.8204,1590575828,S
70,2136263,1.1246,-6.9823,6.8363,0.4200,0.4900,-1.1900,998.8333,1.1307,-6.9369,6.8389,1590575828,S
70,2134603,1.1246,-7.0540,6.8435,-0.4200,0.0700,-0.1400,998.8344,1.1279,-6.9486,6.8275,1590575828,S
70,2131208,1.1127,-7.0373,6.9344,1.1200,0.2800,-0.8400,998.8354,1.1246,-6.9286,6.8484,1590575828,S
69,2129374,1.2084,-6.9799,6.8554,-0.7000,-0.1400,0.4900,998.8359,1.1384,-6.9427,6.8318,1590575828,S
70,2128900,1.1533,-7.0732,6.8004,-1.1900,0.3500,0.7000,998.8370,1.1346,-6.9700,6.8046,1590575828,S
70,2128469,1.0624,-7.0181,6.8004,-1.0500,0.1400,0.4200,998.8370,1.1168,-6.9859,6.7912,1590575828,S
70,2128705,1.1438,-7.0971,6.8076,-0.7700,-0.1400,0.5600,998.8368,1.1179,-7.0068,6.7694,1590575828,S
70,2129901,1.1366,-7.0708,6.8076,-0.2800,-0.1400,0.1400,998.8367,1.1199,-7.0136,6.7621,1590575828,S
70,2131238,1.1246,-7.0445,6.8315,-0.0700,-0.0700,0.2100,998.8366,1.1185,-7.0130,6.7629,1590575829,S
70,2132614,1.1581,-7.0899,6.7908,-0.3500,0.2100,0.1400,998.8359,1.1229,-7.0188,6.7562,1590575829,S
70,2131317,1.1390,-7.0445,6.7980,0.0700,0.2100,0.0700,998.8359,1.1236,-7.0153,6.7597,1590575829,S
69,2129091,1.0624,-7.0756,6.8243,0.1400,0.2100,0.0700,998.8356,1.1083,-7.0137,6.7639,1590575829,S
70,2128972,1.1127,-7.0612,6.7837,0.1400,0.0700,-0.3500,998.8356,1.1095,-7.0110,6.7665,1590575829,S
70,2129309,1.0863,-7.0612,6.7932,0.2800,0.0700,-0.2100,998.8358,1.1045,-7.0089,6.7694,1590575829,S
70,2129622,1.1151,-7.0780,6.8459,0.2800,-0.0700,-0.0700,998.8353,1.1049,-7.0062,6.7722,1590575829,S
70,2130421,1.0887,-7.0469,6.7669,0.2100,0.1400,-0.0700,998.8348,1.1009,-7.0075,6.7715,1590575829,S
70,2131388,1.1127,-7.0875,6.8148,0.2100,-0.0700,-0.0700,998.8343,1.1019,-7.0094,6.7693,1590575829,S
70,2132703,1.1055,-7.0110,6.7621,0.3500,0.0700,-0.0700,998.8341,1.1028,-7.0066,6.7721,1590575829,S
70,2132494,1.0672,-7.0181,6.8674,0.2800,0.0700,-0.0700,998.8341,1.0942,-6.9958,6.7847,1590575830,S
70,2129849,1.1270,-7.1258,6.7932,0.0700,0.0700,-0.0700,998.8334,1.0984,-7.0053,6.7742,1590575830,S
69,2128312,1.1031,-7.0804,6.8195,0.0700,0.0700,-0.0700,998.8331,1.0975,-7.0062,6.7734,1590575830,S
70,2128579,1.1151,-7.0780,6.8387,0.2100,0.2800,-0.4200,998.8325,1.0996,-6.9980,6.7815,1590575830,S
69,2128540,1.0816,-7.0660,6.8267,-0.1400,0.1400,-0.7000,998.8323,1.0971,-6.9925,6.7876,1590575830,S
69,2128597,1.0959,-7.0875,6.8219,0.2100,0.2100,-0.7700,998.8324,1.0977,-6.9868,6.7934,1590575830,S
69,2128667,1.1868,-7.0947,6.8004,-0.7700,-0.2800,-0.2100,998.8321,1.1157,-7.0009,6.7759,1590575830,S
70,2129064,1.1462,-7.0564,6.9081,-1.9600,-0.4900,1.1200,998.8314,1.1153,-7.0217,6.7544,1590575830,S
69,2129511,1.1366,-7.1163,6.7789,-2.4500,-0.0700,0.8400,998.8312,1.1136,-7.0530,6.7220,1590575830,S
69,2127492,1.0624,-7.1115,6.7262,-1.5400,-0.4900,0.8400,998.8307,1.1004,-7.0821,6.6935,1590575830,S
69,2125848,1.0983,-7.1785,6.7095,-1.4700,-0.9100,0.7000,998.8301,1.0987,-7.1148,6.6590,1590575831,S
69,2126910,1.1533,-7.0971,6.7478,-0.0700,-0.4200,-0.2100,998.8300,1.1114,-7.1054,6.6670,1590575831,S
69,2129293,1.0911,-7.1641,6.7669,0.4900,-0.4200,-0.2100,998.8298,1.1080,-7.1001,6.6731,1590575831,S
69,2131663,1.0744,-7.1091,6.6712,-0.0700,0.1400,0.2800,998.8297,1.0992,-7.1039,6.6706,1590575831,S
69,2133554,1.1079,-7.1689,6.7095,0.2800,0.2100,0.4200,998.8300,1.0961,-7.1069,6.6679,1590575831,S
69,2135634,1.0983,-7.1330,6.7286,-0.7700,-0.2800,0.6300,998.8312,1.0932,-7.1176,6.6570,1590575831,S
70,2137605,1.1438,-7.1474,6.6903,-2.4500,-0.6300,1.0500,998.8325,1.0995,-7.1483,6.6229,1590575831,S
69,2138677,1.1007,-7.3651,6.6066,-3.0100,-0.2100,1.1200,998.8333,1.0913,-7.2023,6.5656,1590575831,S
69,2136307,1.0576,-7.3268,6.6281,-1.4700,-0.8400,-0.4200,998.8339,1.0876,-7.2201,6.5466,1590575831,S
69,2134265,1.1174,-7.3196,6.5803,-0.4200,-0.3500,-0.1400,998.8342,1.0936,-7.2295,6.5351,1590575831,S
70,2133610,1.1653,-7.2694,6.5635,-1.3300,-0.3500,-0.2800,998.8347,1.1095,-7.2373,6.5238,1590575832,S
69,2133033,1.0146,-7.2287,6.5396,-0.2100,0.3500,0.3500,998.8349,1.0872,-7.2386,6.5262,1590575832,S
69,2132680,1.0098,-7.2598,6.6066,3.9200,0.7700,-1.5400,998.8353,1.0754,-7.1863,6.5857,1590575832,S
69,2133203,1.3208,-7.3173,6.6042,2.5900,-0.4200,-1.1200,998.8365,1.1288,-7.1693,6.5953,1590575832,S
70,2133293,1.2227,-7.1498,6.5444,2.2400,3.7100,-0.5600,998.8369,1.1346,-7.1186,6.6489,1590575832,S
69,2130581,0.9978,-7.1569,6.7860,1.1200,2.1700,0.7000,998.8364,1.0915,-7.0910,6.6856,1590575832,S
70,2127303,1.0768,-7.2718,6.6664,-1.6100,-1.3300,0.0700,998.8361,1.0918,-7.1331,6.6405,1590575832,S
69,2124006,1.1390,-7.1426,6.6688,2.3100,0.8400,-0.9800,998.8354,1.1018,-7.0980,6.6764,1590575832,S
70,2121417,1.0744,-6.9942,6.7406,1.3300,-0.4900,0.5600,998.8350,1.0965,-7.0845,6.6916,1590575832,S
70,2121809,1.0935,-7.1210,6.6975,-1.3300,-0.7700,0.6300,998.8340,1.0955,-7.1097,6.6651,1590575832,S
70,2123202,0.9954,-7.2144,6.7119,-0.4200,-0.6300,-0.4200,998.8335,1.0786,-7.1204,6.6564,1590575833,S
70,2125645,1.1629,-7.1067,6.6568,-1.2600,-0.9800,-0.1400,998.8326,1.1006,-7.1330,6.6393,1590575833,S
70,2128205,1.1653,-7.1474,6.7358,0.0700,0.0700,-0.3500,998.8317,1.1131,-7.1189,6.6523,1590575833,S
70,2129795,1.0911,-7.1761,6.7071,0.7000,0.2100,-0.2100,998.8302,1.1071,-7.1108,6.6619,1590575833,S
70,2129549,1.0528,-7.1617,6.6903,0.2800,0.4900,-0.2100,998.8290,1.0940,-7.1051,6.6702,1590575833,S
70,2126184,1.0385,-7.1043,6.7430,0.4900,-0.2100,-0.1400,998.8284,1.0837,-7.0962,6.6813,1590575833,S
70,2124711,1.0816,-7.1545,6.7023,0.1400,-0.0700,-0.0700,998.8284,1.0827,-7.0988,6.6787,1590575833,S
70,2125218,1.1390,-7.1067,6.6736,-0.2800,0.2800,0.4200,998.8290,1.0903,-7.1028,6.6732,1590575833,S
70,2125390,1.0696,-7.1880,6.6927,-0.2100,0.3500,0.3500,998.8297,1.0812,-7.1110,6.6660,1590575833,S
70,2125702,1.0911,-7.0875,6.7358,0.5600,0.1400,0.3500,998.8302,1.0801,-7.1007,6.6771,1590575833,S
70,2126227,1.0050,-7.1737,6.7023,0.2100,-0.2100,0.3500,998.8309,1.0630,-7.1108,6.6691,1590575834,S
70,2128049,1.1318,-7.1354,6.7430,0.2100,-0.0700,-0.0700,998.8314,1.0757,-7.1033,6.6751,1590575834,S
70,2129173,1.1079,-7.1761,6.7143,-0.7000,-0.0700,0.2100,998.8312,1.0795,-7.1131,6.6640,1590575834,S
70,2127075,1.0481,-7.1378,6.6329,-0.7700,0.2100,0.4200,998.8314,1.0702,-7.1264,6.6513,1590575834,S
70,2125055,1.0385,-7.1880,6.6712,0.8400,0.2100,-0.3500,998.8307,1.0635,-7.1196,6.6596,1590575834,S
70,2124975,1.0935,-7.1737,6.7071,0.9100,0.2800,-0.4200,998.8300,1.0688,-7.1067,6.6726,1590575834,S
70,2125787,1.1390,-7.1210,6.7167,0.5600,0.2800,-0.0700,998.8303,1.0808,-7.0957,6.6823,1590575834,S
70,2125864,1.0409,-7.1521,6.6616,0.6300,0.1400,-0.3500,998.8306,1.0735,-7.0945,6.6847,1590575834,S
70,2126625,1.0552,-7.1976,6.6329,0.4900,0.1400,-0.2800,998.8309,1.0699,-7.1022,6.6772,1590575834,S
70,2127521,1.0337,-7.1019,6.7071,-0.0700,0.1400,-0.1400,998.8304,1.0624,-7.0973,6.6836,1590575834,S
70,2128268,1.1031,-7.1545,6.7669,0.1400,0.2800,-0.1400,998.8300,1.0677,-7.0888,6.6917,1590575835,S
70,2126949,1.0935,-7.1210,6.7334,0.2100,-0.0700,-0.2100,998.8303,1.0730,-7.0845,6.6955,1590575835,S
70,2124533,1.0648,-7.1498,6.7214,0.3500,0.0700,-0.0700,998.8305,1.0701,-7.0846,6.6958,1590575835,S
70,2123657,1.0768,-7.1426,6.7621,0.2100,0.0700,-0.2100,998.8293,1.0702,-7.0792,6.7015,1590575835,S
70,2123994,1.1151,-7.1593,6.6760,0.2100,0.0700,-0.2100,998.8287,1.0789,-7.0845,6.6944,1590575835,S
70,2124026,1.1294,-7.1521,6.7502,0.0700,0.0700,-0.0700,998.8288,1.0870,-7.0829,6.6949,1590575835,S
70,2124501,1.0504,-7.1689,6.7214,0.0700,0.0700,-0.2100,998.8283,1.0788,-7.0856,6.6934,1590575835,S
70,2125167,1.0744,-7.1737,6.7573,0.2800,0.1400,-0.2800,998.8280,1.0764,-7.0816,6.6980,1590575835,S
70,2125887,1.1151,-7.1402,6.7358,0.2800,0.1400,-0.1400,998.8283,1.0826,-7.0783,6.7005,1590575835,S
70,2125474,1.1055,-7.1521,6.6568,0.0700,-0.1400,-0.1400,998.8293,1.0879,-7.0887,6.6886,1590575835,S
70,2123237,1.0768,-7.1641,6.7023,-0.0700,-0.1400,-0.0700,998.8300,1.0853,-7.0957,6.6816,1590575836,S
70,2122276,1.0744,-7.1210,6.7286,-0.1400,-0.1400,0.3500,998.8302,1.0809,-7.0996,6.6781,1590575836,S
70,2122770,1.0600,-7.2335,6.6832,-0.1400,-0.1400,0.2800,998.8301,1.0739,-7.1172,6.6605,1590575836,S
70,2123568,1.0433,-7.1809,6.7023,-0.1400,-0.2100,0.0700,998.8302,1.0668,-7.1232,6.6552,1590575836,S
70,2124523,1.0911,-7.0995,6.7286,0.0700,-0.1400,0.0700,998.8306,1.0712,-7.1150,6.6633,1590575836,S
70,2125539,1.0744,-7.1067,6.6975,0.2100,-0.0700,0.0700,998.8310,1.0714,-7.1109,6.6676,1590575836,S
70,2126888,1.0935,-7.1737,6.7310,-0.4900,-0.1400,0.0700,998.8314,1.0741,-7.1154,6.6624,1590575836,S
70,2127503,1.0433,-7.1809,6.7262,-0.4200,-0.2100,0.4900,998.8320,1.0645,-7.1258,6.6528,1590575836,S
70,2125454,1.1031,-7.1569,6.6999,-0.4200,-0.2100,0.1400,998.8330,1.0711,-7.1296,6.6477,1590575836,S
70,2124022,1.0816,-7.1928,6.7023,-0.3500,-0.1400,0.1400,998.8337,1.0713,-7.1350,6.6419,1590575836,S
70,2124209,1.0552,-7.1498,6.7095,0.3500,0.0700,-0.1400,998.8348,1.0673,-7.1257,6.6525,1590575837,S
70,2124861,1.0887,-7.1761,6.7262,-0.6300,-0.2100,0.0700,998.8353,1.0702,-7.1295,6.6479,1590575837,S
70,2125727,1.1031,-7.1378,6.7334,0.3500,-0.0700,-0.1400,998.8355,1.0763,-7.1183,6.6590,1590575837,S
70,2126415,1.0959,-7.1785,6.7047,0.3500,-0.0700,-0.0700,998.8353,1.0793,-7.1169,6.6600,1590575837,S
71,2127232,1.0839,-7.1761,6.7454,-0.0700,-0.0700,0.0700,998.8350,1.0779,-7.1159,6.6613,1590575837,S
70,2128038,1.1294,-7.1545,6.7119,-0.2800,0.1400,0.0700,998.8345,1.0857,-7.1149,6.6611,1590575837,S
70,2126480,1.1629,-7.1450,6.6903,-0.0700,0.1400,0.0700,998.8341,1.0989,-7.1135,6.6604,1590575837,S
70,2123955,1.0481,-7.1330,6.7406,-0.2800,-0.0700,0.1400,998.8336,1.0870,-7.1123,6.6637,1590575837,S
71,2122817,1.1342,-7.1378,6.6688,0.0700,-0.0700,-0.1400,998.8339,1.0968,-7.1122,6.6622,1590575837,S
71,2123119,1.1031,-7.1474,6.6808,-0.2100,0.0700,0.0700,998.8342,1.0965,-7.1150,6.6592,1590575837,S
71,2123460,1.0433,-7.1474,6.6640,-0.2100,0.1400,0.0700,998.8345,1.0844,-7.1191,6.6568,1590575837,S
71,2124142,1.0911,-7.1856,6.7286,-0.3500,0.1400,0.2100,998.8345,1.0818,-7.1214,6.6548,1590575838,S
71,2125102,1.1079,-7.1593,6.6832,-0.0700,0.1400,0.1400,998.8350,1.0846,-7.1224,6.6533,1590575838,S
71,2126167,1.1222,-7.1282,6.6401,-0.2800,0.1400,0.1400,998.8353,1.0907,-7.1256,6.6488,1590575838,S
71,2127216,1.0696,-7.1665,6.6712,-0.3500,0.1400,0.2800,998.8345,1.0835,-7.1314,6.6437,1590575838,S
71,2125598,1.0457,-7.1880,6.7119,-0.3500,0.1400,0.2100,998.8340,1.0724,-7.1338,6.6430,1590575838,S
71,2123938,1.0887,-7.1569,6.7095,-0.2800,-0.1400,0.2100,998.8332,1.0738,-7.1345,6.6420,1590575838,S
71,2124154,1.1079,-7.1282,6.7119,-0.2800,0.0700,-0.0700,998.8322,1.0796,-7.1268,6.6493,1590575838,S
71,2124855,1.0552,-7.1426,6.7286,0.0700,-0.1400,-0.0700,998.8316,1.0744,-7.1211,6.6563,1590575838,S
71,2125624,1.1055,-7.1545,6.6951,0.0700,-0.0700,-0.0700,998.8316,1.0801,-7.1194,6.6572,1590575838,S
71,2126597,1.0887,-7.1234,6.7023,-0.2100,-0.0700,-0.0700,998.8316,1.0817,-7.1164,6.6601,1590575839,S
71,2127777,1.0792,-7.1665,6.7214,0.0700,-0.0700,-0.0700,998.8322,1.0802,-7.1146,6.6623,1590575839,S
71,2129017,1.0911,-7.1545,6.7717,-0.2100,0.0700,0.1400,998.8328,1.0790,-7.1097,6.6677,1590575839,S
71,2128524,1.0887,-7.1450,6.7047,-0.1400,-0.0700,0.0700,998.8336,1.0798,-7.1115,6.6656,1590575839,S
71,2126214,1.0600,-7.1545,6.7454,-0.0700,-0.0700,0.2100,998.8340,1.0733,-7.1115,6.6667,1590575839,S
71,2125332,1.1031,-7.1617,6.6760,-0.0700,-0.1400,-0.0700,998.8348,1.0792,-7.1159,6.6611,1590575839,S
71,2125902,1.0792,-7.1306,6.6808,-0.4200,-0.1400,0.2800,998.8361,1.0779,-7.1223,6.6544,1590575839,S
71,2126565,1.0816,-7.1880,6.7190,-0.4200,-0.1400,0.2100,998.8371,1.0761,-7.1283,6.6483,1590575839,S
71,2127245,1.0409,-7.1593,6.6903,-0.5600,-0.1400,0.1400,998.8380,1.0680,-7.1340,6.6435,1590575839,S
71,2128305,1.0696,-7.1928,6.6760,0.5600,-0.2800,-0.2100,998.8389,1.0693,-7.1332,6.6442,1590575839,S
71,2129689,1.1246,-7.1354,6.7023,0.0700,-0.0700,-0.1400,998.8391,1.0803,-7.1254,6.6507,1590575840,S
71,2130215,1.1007,-7.1952,6.6903,0.3500,0.0700,-0.1400,998.8397,1.0830,-7.1234,6.6524,1590575840,S
71,2127877,1.1079,-7.1474,6.6951,0.3500,0.1400,-0.3500,998.8398,1.0881,-7.1138,6.6619,1590575840,S
71,2125394,1.0672,-7.1234,6.7525,0.4900,-0.0700,-0.3500,998.8397,1.0846,-7.1000,6.6771,1590575840,S
71,2124710,1.1079,-7.1330,6.7765,-0.4200,-0.0700,-0.0700,998.8400,1.0878,-7.0956,6.6813,1590575840,S
71,2124770,1.0887,-7.1330,6.7119,-0.0700,-0.0700,0.1400,998.8398,1.0866,-7.0987,6.6782,1590575840,S
71,2125124,1.0911,-7.1210,6.6736,0.0700,-0.0700,-0.0700,998.8392,1.0879,-7.1007,6.6759,1590575840,S
71,2126133,1.1246,-7.1115,6.7095,-0.2100,-0.0700,0.0700,998.8394,1.0944,-7.1005,6.6750,1590575840,S
71,2127238,1.0959,-7.1426,6.7525,-0.0700,-0.1400,0.2100,998.8401,1.0924,-7.1009,6.6749,1590575840,S
71,2128440,1.0600,-7.1521,6.7549,-0.3500,-0.1400,0.1400,998.8410,1.0839,-7.1035,6.6735,1590575840,S
71,2128859,1.0433,-7.1330,6.6808,-0.2800,-0.2100,0.4900,998.8423,1.0738,-7.1153,6.6626,1590575841,S
71,2126821,1.0672,-7.1498,6.6784,-0.2800,-0.2100,-0.0700,998.8431,1.0730,-7.1201,6.6576,1590575841,S
71,2125207,1.1007,-7.1689,6.7167,-0.0700,-0.1400,0.2100,998.8421,1.0764,-7.1224,6.6545,1590575841,S
71,2125153,1.0504,-7.1713,6.7119,-0.1400,0.0700,0.2100,998.8409,1.0682,-7.1244,6.6538,1590575841,S
71,2125585,1.1294,-7.1019,6.7071,-0.3500,-0.1400,0.2100,998.8398,1.0794,-7.1216,6.6549,1590575841,S
71,2125991,1.1127,-7.1641,6.7454,-0.3500,-0.1400,-0.1400,998.8380,1.0852,-7.1182,6.6576,1590575841,S
71,2126799,1.0839,-7.1258,6.6616,0.0700,-0.1400,-0.0700,998.8369,1.0858,-7.1186,6.6570,1590575841,S
71,2127836,1.1103,-7.1186,6.6927,-0.1400,-0.0700,-0.0700,998.8360,1.0908,-7.1155,6.6596,1590575841,S
71,2128724,1.1749,-7.1498,6.6832,-0.1400,0.1400,-0.0700,998.8356,1.1061,-7.1139,6.6588,1590575841,S
71,2127481,1.0839,-7.1378,6.7262,-0.0700,0.0700,-0.0700,998.8351,1.1004,-7.1090,6.6650,1590575841,S
71,2125186,1.1414,-7.0995,6.7717,-0.0700,-0.0700,-0.0700,998.8350,1.1076,-7.0972,6.6763,1590575842,S
71,2124268,1.1174,-7.1306,6.7454,-0.0700,-0.0700,-0.0700,998.8343,1.1086,-7.0938,6.6798,1590575842,S
71,2124769,1.0983,-7.1210,6.7262,-0.1400,-0.1400,-0.0700,998.8333,1.1065,-7.0934,6.6805,1590575842,S
71,2125098,1.0983,-7.1498,6.7430,-0.1400,0.0700,0.0700,998.8321,1.1023,-7.0937,6.6809,1590575842,S
71,2125766,1.0935,-7.1282,6.7071,-0.1400,0.0700,-0.0700,998.8317,1.0996,-7.0941,6.6810,1590575842,S
71,2126500,1.0983,-7.1258,6.7095,-0.1400,-0.1400,-0.0700,998.8318,1.0994,-7.0957,6.6793,1590575842,S
71,2127282,1.0696,-7.1880,6.7549,-0.2100,-0.0700,-0.1400,998.8324,1.0920,-7.0980,6.6781,1590575842,S
71,2127816,1.0504,-7.1713,6.6712,-0.2100,-0.0700,0.2100,998.8333,1.0820,-7.1104,6.6665,1590575842,S
71,2125732,1.0887,-7.1593,6.7478,-0.3500,-0.0700,0.2100,998.8345,1.0805,-7.1121,6.6649,1590575842,S
71,2123982,1.0624,-7.1952,6.7549,-0.4900,-0.1400,0.1400,998.8362,1.0743,-7.1173,6.6604,1590575842,S
71,2123867,1.0504,-7.1450,6.6832,-0.3500,-0.1400,0.0700,998.8367,1.0690,-7.1223,6.6558,1590575843,S
71,2124643,1.1318,-7.1378,6.7095,-0.1400,-0.1400,0.0700,998.8368,1.0806,-7.1204,6.6560,1590575843,S
71,2125653,1.1438,-7.1354,6.7430,-0.2800,-0.2800,0.2100,998.8369,1.0917,-7.1188,6.6560,1590575843,S
71,2126915,1.0959,-7.1880,6.7358,-0.0700,-0.0700,0.0700,998.8364,1.0902,-7.1192,6.6557,1590575843,S
71,2128050,1.1055,-7.1402,6.6927,-0.0700,-0.0700,0.0700,998.8358,1.0922,-7.1192,6.6555,1590575843,S
71,2129416,1.0959,-7.1474,6.6903,0.2100,-0.0700,0.0700,998.8346,1.0920,-7.1184,6.6563,1590575843,S
71,2129601,1.0983,-7.1210,6.7358,0.1400,-0.2100,-0.0700,998.8345,1.0933,-7.1111,6.6639,1590575843,S
71,2127578,1.0983,-7.1856,6.7262,-0.2800,-0.2100,-0.0700,998.8340,1.0935,-7.1149,6.6598,1590575843,S
71,2126603,1.0313,-7.1282,6.7430,0.3500,-0.0700,-0.0700,998.8340,1.0805,-7.1069,6.6705,1590575843,S
71,2127132,1.0481,-7.1545,6.7095,0.0700,-0.0700,0.0700,998.8342,1.0727,-7.1091,6.6694,1590575843,S
71,2127685,1.0983,-7.2168,6.6951,-0.1400,-0.2100,0.1400,998.8344,1.0759,-7.1207,6.6565,1590575844,S
70,2128449,1.1174,-7.1186,6.6927,-0.0700,-0.2100,0.1400,998.8344,1.0838,-7.1201,6.6558,1590575844,S
71,2129504,1.0193,-7.1737,6.7334,0.1400,-0.1400,0.1400,998.8342,1.0691,-7.1207,6.6576,1590575844,S
71,2130522,1.0839,-7.1426,6.6808,-0.2100,-0.0700,0.1400,998.8340,1.0709,-7.1237,6.6540,1590575844,S
71,2131554,1.0983,-7.1282,6.6736,-0.0700,0.0700,0.1400,998.8343,1.0749,-7.1230,6.6541,1590575844,S
70,2130566,1.0672,-7.1210,6.7621,-0.0700,-0.0700,-0.1400,998.8347,1.0729,-7.1120,6.6662,1590575844,S
70,2128177,1.0672,-7.1163,6.6951,-0.1400,-0.0700,-0.1400,998.8343,1.0723,-7.1097,6.6688,1590575844,S
71,2127379,1.1462,-7.1545,6.7214,0.0700,-0.1400,-0.2100,998.8337,1.0870,-7.1062,6.6702,1590575844,S
70,2127549,1.0935,-7.1163,6.7430,0.0700,0.0700,-0.0700,998.8332,1.0871,-7.0980,6.6788,1590575844,S
70,2127643,1.0528,-7.1521,6.7023,0.0700,0.0700,-0.1400,998.8323,1.0795,-7.0987,6.6793,1590575844,S
70,2127967,1.1294,-7.1426,6.6640,-0.2800,-0.1400,-0.0700,998.8314,1.0899,-7.1060,6.6699,1590575845,S
70,2128469,1.0720,-7.1809,6.6544,0.0700,-0.0700,-0.0700,998.8306,1.0861,-7.1143,6.6617,1590575845,S
70,2129194,1.1318,-7.1043,6.6712,0.3500,-0.0700,-0.1400,998.8301,1.0962,-7.1086,6.6661,1590575845,S
70,2129778,1.1174,-7.2024,6.7214,-0.7700,-0.0700,0.5600,998.8298,1.0954,-7.1231,6.6507,1590575845,S
70,2127551,1.0146,-7.1091,6.6640,0.2100,-0.0700,0.5600,998.8293,1.0769,-7.1273,6.6492,1590575845,S
70,2126062,1.1366,-7.1186,6.7047,-0.2800,-0.0700,0.1400,998.8286,1.0875,-7.1238,6.6512,1590575845,S
70,2126056,1.0816,-7.0612,6.7119,-0.2100,-0.2100,0.0700,998.8287,1.0871,-7.1161,6.6596,1590575845,S
70,2127037,1.0696,-7.1928,6.6879,-0.2800,0.0700,0.1400,998.8276,1.0809,-7.1234,6.6528,1590575845,S
70,2127880,1.0911,-7.1354,6.7071,0.2800,0.0700,-0.1400,998.8266,1.0823,-7.1151,6.6614,1590575845,S
70,2128558,1.1390,-7.1402,6.6664,0.5600,1.0500,-0.1400,998.8260,1.0889,-7.1013,6.6751,1590575845,S
70,2127880,1.0672,-7.1928,6.7621,3.9200,3.1500,-1.7500,998.8254,1.0762,-7.0278,6.7544,1590575846,S
70,2125859,1.0026,-7.0277,6.8698,1.8900,0.4200,-1.1200,998.8251,1.0636,-6.9891,6.7964,1590575846,S
70,2123974,1.2084,-7.0636,6.8219,7.0000,-1.4000,-4.4800,998.8254,1.1193,-6.9144,6.8636,1590575846,S
70,2120127,1.1725,-7.2790,7.2814,10.0800,-3.7100,-3.2200,998.8256,1.1511,-6.8470,6.9256,1590575846,S
70,2115188,0.8853,-6.2118,8.4371,19.1100,-34.4400,4.6200,998.8260,1.2370,-6.8958,6.8621,1590575846,S
70,2120603,0.8590,-7.0947,8.7410,45.8500,-95.7600,4.7600,998.8262,1.6507,-7.0979,6.5625,1590575846,S
70,2133064,4.7785,-7.0828,6.2261,-11.4100,-130.9000,-15.0500,998.8259,2.8689,-7.1717,6.0420,1590575846,S
70,2146100,6.1831,-9.6311,2.3521,-139.3700,-85.2600,-31.0800,998.8265,3.5614,-8.0329,4.3543,1590575846,S
70,2161036,6.4415,-6.8483,3.0748,74.6200,35.1400,-84.6300,998.8264,4.6656,-7.0768,4.9317,1590575846,S
70,2174165,6.3888,-2.0818,5.2570,194.0400,76.0900,-59.7100,998.8266,4.9661,-4.9578,6.8505,1590575846,S
70,2191132,3.2925,-7.6475,6.7956,10.1500,49.9800,-44.1000,998.8278,4.4950,-5.0232,7.1227,1590575847,S
70,2207945,3.8118,0.0814,10.1121,166.1100,108.4300,-21.0000,998.8284,3.2970,-2.7020,8.8317,1590575847,S
70,2217915,3.1274,-0.5599,8.6716,79.3800,29.3300,-28.2800,998.8275,2.7192,-1.4501,9.3099,1590575847,S
70,2227040,2.1655,1.9549,8.3414,78.1900,39.2700,-26.8800,998.8263,5.8341,-0.7168,7.8499,1590575847,S
70,2231345,2.6273,6.0921,10.8850,75.8800,21.9100,-30.3100,998.8250,6.6149,0.3819,7.2296,1590575847,S
71,2235315,0.8064,3.5174,8.8606,4.7600,2.6600,-0.1400,998.8223,4.8249,1.3850,8.4245,1590575847,S
71,2236638,1.2491,4.4698,8.3342,60.9700,-3.2900,-65.8700,998.8195,3.4920,2.5682,8.7966,1590575847,S
70,2237047,4.1707,7.4369,4.8550,-27.6500,8.4000,16.3100,998.8163,3.8615,3.1982,8.4279,1590575847,S
71,2241966,1.5410,5.1111,6.4367,94.6400,74.0600,-3.1500,998.8135,3.2928,4.0354,8.3092,1590575847,S
70,2252054,-0.2034,3.5294,7.6953,47.0400,77.4200,62.5800,998.8110,2.5839,4.0829,8.5337,1590575847,S
71,2266184,-1.9669,6.9153,8.5783,-9.7300,22.4000,12.0400,998.8089,1.8557,3.9667,8.7745,1590575848,S
71,2276076,-1.5625,5.1135,9.3799,-61.1800,-8.5400,21.3500,998.8075,1.3436,3.3499,9.1183,1590575848,S
71,2285826,-0.6341,3.0269,10.2078,-50.8200,-54.3200,-34.6500,998.8055,1.0080,2.9167,9.3084,1590575848,S
71,2287893,3.1131,4.6732,8.7075,-32.6900,-58.6600,-35.0000,998.8035,1.7490,3.4709,9.0036,1590575848,S
71,2288548,4.3813,3.9218,6.6616,-53.0600,-24.0100,12.6700,998.8015,2.4655,3.4579,8.8394,1590575848,S
71,2292705,3.6060,-1.3496,6.3482,42.2800,53.7600,8.6100,998.7985,2.4043,3.0056,9.0198,1590575848,S
71,2302555,4.3238,7.4297,9.5498,51.8700,36.6100,32.5500,998.7952,2.5187,3.5282,8.7965,1590575848,S
72,2306334,-5.1206,4.7593,10.8203,56.2800,90.7900,11.2700,998.7931,1.1550,3.4077,9.1227,1590575848,S
72,2311823,-1.3496,8.0662,9.7125,1.0500,-45.3600,-30.1700,998.7919,1.2160,3.8070,8.9554,1590575848,S
71,2311387,0.5791,3.3356,9.0401,-50.8200,-39.3400,-21.4900,998.7911,1.2295,3.5898,9.0428,1590575848,S
72,2309883,2.2325,2.3665,8.6812,-34.4400,-39.4800,-51.9400,998.7900,1.6153,3.6123,8.9729,1590575849,S
72,2308453,2.7494,2.9647,5.9127,17.7100,26.3200,2.9400,998.7891,1.6663,3.6523,8.9473,1590575849,S
72,2309161,2.7876,5.8265,7.5230,77.4200,66.7800,4.7600,998.7886,1.5425,4.2523,8.7011,1590575849,S
72,2310302,-0.9045,8.9898,6.2955,105.4900,99.5400,44.2400,998.7887,0.7801,4.4767,8.6903,1590575849,S
72,2312284,-3.6873,6.4008,11.5310,-47.7400,-4.5500,30.3100,998.7896,0.3690,3.6750,9.0845,1590575849,S
72,2315325,-3.3188,4.2185,7.8174,3.3600,-52.4300,-59.9900,998.7906,-0.2060,2.5702,9.4616,1590575849,S
72,2309227,-0.1938,3.0891,7.5924,-29.5400,-48.3700,-40.6000,998.7914,0.0920,3.8695,9.0105,1590575849,S
72,2306159,1.1916,6.9631,8.4491,-138.7400,-64.4700,32.9700,998.7915,0.7641,4.8827,8.4703,1590575849,S
72,2303247,0.3206,4.4674,5.9294,-46.4800,-66.7100,48.8600,998.7910,1.3409,4.7338,8.4831,1590575849,S
72,2298354,1.9310,3.5270,6.9105,-30.7300,-47.0400,78.9600,998.7905,2.0105,4.0269,8.7128,1590575849,S
72,2297268,4.0654,0.7825,6.1543,-3.5000,27.7900,79.3100,998.7901,2.2880,3.0152,9.0468,1590575850,S
72,2298116,1.9071,-1.5386,7.9968,2.8700,90.4400,38.0800,998.7908,1.5760,1.8778,9.4953,1590575850,S
72,2297479,1.0792,0.6676,9.6431,-23.0300,84.9800,-2.1000,998.7914,0.6429,1.0780,9.7260,1590575850,S
72,2290233,0.6820,-1.3759,11.3061,-97.5100,26.7400,-24.9900,998.7927,-0.1116,-0.1629,9.8047,1590575850,S
73,2283935,1.8568,-2.5101,10.4686,-117.6700,0.0700,-43.9600,998.7940,2.8201,-0.0905,9.3920,1590575850,S
73,2280058,1.9717,0.4594,10.7486,-116.3400,12.9500,-3.2200,998.7941,4.0181,-0.3793,8.9376,1590575850,S
73,2279207,0.3326,-5.5681,8.0614,-103.1800,8.4700,39.9700,998.7943,5.0185,-1.7081,8.2503,1590575850,S
73,2279698,0.2201,-6.8578,8.1667,-71.4000,3.5000,14.8400,998.7949,4.5244,-3.0186,8.1601,1590575850,S
73,2281946,-1.0074,-6.5707,6.8865,-63.4900,-10.6400,4.2700,998.7953,3.7228,-4.0545,8.1162,1590575850,S
73,2278872,-0.3254,-7.7264,6.1615,-59.2900,-20.7200,-6.7900,998.7974,3.2957,-4.8897,7.8358,1590575850,S
73,2267796,0.3015,-8.9970,5.5466,-0.4200,-14.5600,-25.6900,998.7993,2.9949,-5.2609,7.7151,1590575851,S
74,2249793,1.1270,-8.4802,6.3242,-3.7800,-12.1800,-27.2300,998.8015,2.8700,-5.5198,7.5806,1590575851,S
74,2232354,0.6843,-7.5565,5.6160,2.4500,5.2500,-2.1700,998.8032,2.4326,-5.7047,7.5967,1590575851,S
74,2223854,1.4548,-8.1165,5.7045,-4.0600,0.7000,-1.2600,998.8048,2.2984,-5.9955,7.4122,1590575851,S
74,2217334,1.0504,-7.9609,5.8313,3.1500,1.1900,-1.1900,998.8065,2.0721,-6.1649,7.3396,1590575851,S
74,2212154,0.9787,-7.8556,5.8863,1.6800,1.6800,-1.0500,998.8081,1.8695,-6.3174,7.2640,1590575851,S
75,2207792,0.9069,-7.7623,5.9055,2.1000,0.3500,-1.4700,998.8100,1.6993,-6.4555,7.1840,1590575851,S
75,2203615,1.0098,-7.7480,5.9868,0.6300,-0.4200,-0.4900,998.8125,1.5824,-6.6130,7.0664,1590575851,S
75,2195839,1.0600,-7.7671,5.9605,-1.8200,-0.9800,0.9800,998.8147,1.4942,-6.8014,6.9050,1590575851,S
76,2187520,0.9882,-7.8676,5.8552,-4.7600,-1.1200,1.8900,998.8171,1.4027,-7.0106,6.7122,1590575851,S
75,2181520,0.9236,-7.9777,5.8146,-3.7800,-0.9800,0.9800,998.8198,1.3145,-7.1879,6.5403,1590575852,S
76,2178281,0.9045,-7.9729,5.6973,-2.3100,-1.4700,0.2800,998.8215,1.2442,-7.3428,6.3801,1590575852,S
76,2176456,0.9643,-7.9490,5.7643,-1.6100,-1.4700,0.0700,998.8224,1.1973,-7.4639,6.2472,1590575852,S
76,2175481,1.0074,-7.9107,5.6758,-1.0500,-0.8400,0.1400,998.8232,1.1655,-7.5654,6.1299,1590575852,S
76,2174730,0.9476,-8.0853,5.6351,-0.7000,-0.1400,0.4900,998.8251,1.1203,-7.6578,6.0227,1590575852,S
76,2172972,0.8399,-7.9848,5.6566,-1.1200,-0.6300,-0.2800,998.8271,1.0690,-7.7211,5.9508,1590575852,S
77,2167872,1.3639,-7.9705,5.7811,6.3700,0.5600,-2.0300,998.8279,1.1357,-7.7009,5.9646,1590575852,S
77,2162762,1.0433,-7.8078,5.7930,6.0900,5.1100,-1.0500,998.8286,1.1051,-7.6416,6.0461,1590575852,S
77,2157853,0.7131,-7.7791,5.8887,-0.0700,0.6300,0.8400,998.8293,1.0199,-7.6683,6.0272,1590575852,S
77,2155164,1.0504,-7.7910,5.9342,1.5400,-0.7700,-0.2800,998.8299,1.0302,-7.6819,6.0081,1590575852,S
77,2154213,1.0026,-7.8030,5.9629,1.1200,-0.7700,-0.4900,998.8294,1.0296,-7.6904,5.9973,1590575853,S
77,2153647,0.9763,-7.7862,5.9270,1.1200,-0.7700,-0.4900,998.8297,1.0246,-7.6995,5.9865,1590575853,S
78,2153509,1.0217,-7.7288,5.9390,0.4900,0.1400,0.2100,998.8309,1.0225,-7.7048,5.9800,1590575853,S
77,2152382,0.9141,-7.7982,5.9031,0.2100,0.0700,-0.2800,998.8321,1.0019,-7.7153,5.9699,1590575853,S
78,2148634,0.9811,-7.8269,5.9605,-0.5600,-0.2100,0.1400,998.8330,0.9961,-7.7312,5.9504,1590575853,S
77,2146400,0.9978,-7.8174,5.9127,-0.4900,-0.0700,0.0700,998.8342,0.9953,-7.7453,5.9321,1590575853,S
78,2146086,1.0122,-7.7695,5.9055,-0.4200,0.2800,0.0700,998.8354,0.9970,-7.7504,5.9252,1590575853,S
77,2146291,0.9380,-7.8150,5.8600,-0.4900,-0.5600,-0.2800,998.8365,0.9887,-7.7661,5.9059,1590575853,S
78,2147589,1.0241,-7.8006,5.8768,-1.4000,-0.9100,-0.0700,998.8367,0.9991,-7.7850,5.8792,1590575853,S
77,2149491,1.0648,-7.8580,5.8433,0.5600,0.1400,-0.4200,998.8364,1.0134,-7.7843,5.8777,1590575853,S
78,2151031,1.0528,-7.8150,5.9629,0.6300,0.7000,-0.1400,998.8365,1.0179,-7.7676,5.8991,1590575854,S
77,2150325,1.0098,-7.8317,5.9294,0.9100,0.4900,-0.1400,998.8363,1.0141,-7.7593,5.9107,1590575854,S
78,2147516,0.9906,-7.8221,5.9486,-0.7700,-0.4900,0.4200,998.8354,1.0072,-7.7732,5.8934,1590575854,S
77,2146562,1.0026,-7.8748,5.8959,0.4900,-0.1400,-0.1400,998.8346,1.0061,-7.7774,5.8881,1590575854,S
78,2147377,1.0169,-7.7886,5.9366,0.7700,0.1400,-0.2100,998.8338,1.0084,-7.7659,5.9030,1590575854,S
77,2147884,0.9811,-7.8054,5.9653,0.1400,-0.1400,0.2800,998.8332,1.0005,-7.7667,5.9032,1590575854,S
77,2148469,0.9811,-7.8389,5.9462,-0.2100,-0.0700,0.0700,998.8328,0.9948,-7.7708,5.8988,1590575854,S
78,2149669,1.0624,-7.7862,5.8816,0.2800,-0.0700,-0.1400,998.8325,1.0093,-7.7700,5.8974,1590575854,S
78,2151119,1.0672,-7.8126,5.8935,-0.3500,0.2100,-0.0700,998.8317,1.0196,-7.7722,5.8927,1590575854,S
78,2150394,1.0433,-7.7934,5.9366,-0.3500,0.0700,-0.1400,998.8312,1.0238,-7.7691,5.8960,1590575854,S
77,2147861,0.9523,-7.8102,5.9366,-0.0700,-0.0700,-0.1400,998.8314,1.0097,-7.7688,5.8988,1590575855,S
78,2146991,1.0193,-7.7982,5.9198,0.2800,-0.0700,-0.1400,998.8318,1.0120,-7.7663,5.9017,1590575855,S
78,2147596,1.0289,-7.7862,5.9438,0.2800,-0.1400,-0.1400,998.8329,1.0159,-7.7616,5.9073,1590575855,S
78,2148120,0.9523,-7.7791,5.9390,0.2800,-0.2100,0.2100,998.8328,1.0023,-7.7633,5.9074,1590575855,S
77,2148806,1.0002,-7.8150,5.9486,-0.2100,0.0700,0.2100,998.8331,0.9990,-7.7661,5.9042,1590575855,S
78,2149583,1.0241,-7.8461,5.9366,-0.3500,-0.1400,-0.0700,998.8345,1.0031,-7.7708,5.8973,1590575855,S
78,2150264,1.0696,-7.7551,5.9462,-0.2800,0.1400,0.2100,998.8359,1.0140,-7.7666,5.9011,1590575855,S
78,2149436,0.9404,-7.7719,5.9557,-0.1400,0.1400,0.2100,998.8363,0.9969,-7.7651,5.9060,1590575855,S
77,2146709,0.9811,-7.7647,5.9270,0.2100,-0.1400,-0.0700,998.8369,0.9945,-7.7625,5.9098,1590575855,S
78,2145392,1.0337,-7.7623,5.9605,0.2100,-0.1400,-0.2100,998.8373,1.0035,-7.7546,5.9186,1590575855,S
77,2145522,1.0169,-7.7886,5.9079,-0.2800,-0.1400,0.1400,998.8372,1.0054,-7.7621,5.9085,1590575856,S
77,2145591,1.0361,-7.8341,5.9246,-0.0700,0.0700,-0.0700,998.8369,1.0102,-7.7645,5.9044,1590575856,S
77,2145856,0.9906,-7.8102,5.9557,-0.0700,-0.0700,-0.0700,998.8369,1.0056,-7.7635,5.9065,1590575856,S
78,2146409,0.9835,-7.7695,5.8816,-0.0700,-0.1400,0.0700,998.8373,1.0015,-7.7689,5.9001,1590575856,S
77,2147054,0.9906,-7.8485,5.9270,-0.1400,-0.1400,0.0700,998.8375,0.9979,-7.7750,5.8927,1590575856,S
78,2147285,0.9715,-7.8150,5.9270,-0.1400,0.0700,0.2100,998.8382,0.9901,-7.7777,5.8905,1590575856,S
77,2144826,1.0050,-7.8604,5.9342,-0.2800,0.1400,0.0700,998.8384,0.9901,-7.7806,5.8866,1590575856,S
78,2142854,0.9452,-7.8820,5.9079,-0.1400,-0.1400,0.1400,998.8375,0.9791,-7.7901,5.8758,1590575856,S
77,2142250,0.9452,-7.8054,5.8816,-0.0700,0.0700,0.1400,998.8369,0.9709,-7.7927,5.8739,1590575856,S
78,2142056,0.9476,-7.8174,5.9390,-0.0700,0.0700,0.0700,998.8362,0.9645,-7.7893,5.8793,1590575856,S
77,2142018,0.9500,-7.8293,5.9007,0.0700,-0.1400,0.0700,998.8358,0.9609,-7.7920,5.8764,1590575857,S
77,2142079,0.9763,-7.8317,5.9270,0.1400,-0.1400,-0.0700,998.8362,0.9637,-7.7894,5.8793,1590575857,S
77,2142512,0.9882,-7.7982,5.9222,0.1400,-0.1400,-0.0700,998.8365,0.9689,-7.7851,5.8842,1590575857,S
77,2142927,1.0169,-7.7815,5.9127,-0.2800,0.2100,-0.0700,998.8365,0.9776,-7.7804,5.8889,1590575857,S
77,2141103,1.0098,-7.7982,5.9653,-0.0700,0.0700,-0.0700,998.8364,0.9829,-7.7730,5.8978,1590575857,S
77,2138237,0.9476,-7.7504,5.9103,-0.0700,-0.0700,-0.0700,998.8368,0.9768,-7.7709,5.9017,1590575857,S
77,2136863,0.9787,-7.8126,5.9198,-0.0700,-0.0700,-0.1400,998.8370,0.9774,-7.7716,5.9006,1590575857,S
77,2136549,1.0002,-7.8126,5.9198,-0.0700,-0.0700,-0.0700,998.8368,0.9817,-7.7726,5.8986,1590575857,S
77,2136387,1.0241,-7.7910,5.9055,-0.0700,-0.0700,0.0700,998.8369,0.9895,-7.7744,5.8950,1590575857,S
76,2136427,0.9954,-7.8078,5.9438,-0.0700,0.0700,0.0700,998.8369,0.9888,-7.7727,5.8972,1590575857,S
77,2136663,0.9667,-7.8078,5.9414,0.0700,-0.0700,0.0700,998.8370,0.9833,-7.7724,5.8985,1590575858,S
76,2137124,0.9476,-7.7839,5.9222,0.2100,-0.2100,0.0700,998.8370,0.9762,-7.7729,5.8991,1590575858,S
76,2136731,0.9141,-7.7958,5.9533,0.2100,-0.0700,0.0700,998.8373,0.9628,-7.7707,5.9042,1590575858,S
76,2133445,0.9117,-7.8245,5.8911,-0.0700,-0.0700,-0.0700,998.8371,0.9527,-7.7768,5.8978,1590575858,S
76,2130930,0.9667,-7.7551,5.9390,0.1400,-0.1400,-0.2800,998.8381,0.9575,-7.7682,5.9083,1590575858,S
76,2130187,0.9452,-7.8221,5.9318,-0.1400,0.1400,0.1400,998.8389,0.9526,-7.7714,5.9049,1590575858,S
76,2129675,0.9141,-7.7791,5.9486,-0.2100,0.1400,0.1400,998.8403,0.9429,-7.7701,5.9082,1590575858,S
76,2129764,0.9882,-7.7623,5.9438,-0.2100,-0.0700,0.0700,998.8410,0.9514,-7.7679,5.9097,1590575858,S
76,2130120,0.9954,-7.8174,5.9797,-0.2100,-0.0700,0.0700,998.8403,0.9583,-7.7667,5.9101,1590575858,S
76,2130617,0.9882,-7.7886,5.9103,0.0700,0.0700,0.0700,998.8401,0.9632,-7.7677,5.9080,1590575858,S
76,2131213,1.0002,-7.7839,5.9007,-0.2100,0.2800,0.0700,998.8392,0.9688,-7.7688,5.9057,1590575859,S
75,2129852,0.9739,-7.7862,5.9151,0.0700,0.0700,-0.0700,998.8391,0.9696,-7.7674,5.9075,1590575859,S
76,2127226,0.9691,-7.7264,5.9151,-0.2100,-0.1400,-0.0700,998.8384,0.9710,-7.7651,5.9102,1590575859,S
76,2125641,0.9978,-7.8485,5.9438,0.1400,-0.0700,-0.0700,998.8370,0.9753,-7.7667,5.9074,1590575859,S
76,2125973,0.9835,-7.7982,5.9222,0.2800,-0.2100,-0.0700,998.8359,0.9775,-7.7668,5.9069,1590575859,S
75,2126032,1.0026,-7.8772,5.9151,0.0700,-0.0700,-0.0700,998.8351,0.9813,-7.7732,5.8978,1590575859,S
75,2126441,0.9739,-7.7958,5.9629,0.3500,-0.0700,-0.0700,998.8350,0.9795,-7.7667,5.9067,1590575859,S
75,2127113,0.9500,-7.8221,5.9438,0.2100,-0.3500,-0.1400,998.8350,0.9746,-7.7678,5.9061,1590575859,S
75,2127937,1.0146,-7.7408,5.9246,0.0700,0.3500,-1.0500,998.8345,0.9876,-7.7485,5.9292,1590575859,S
75,2127449,0.9069,-7.9370,6.1591,3.7800,-0.7700,-1.9600,998.8344,0.9818,-7.7054,5.9861,1590575859,S
75,2122381,0.8160,-7.9490,6.7645,29.6100,-7.6300,-3.9900,998.8338,0.9985,-7.5072,6.2302,1590575860,S
75,2119041,0.3972,-7.7121,8.2935,38.0100,-48.5800,-0.2100,998.8333,1.1550,-7.5652,6.1323,1590575860,S
75,2124769,1.3304,-8.3390,8.7577,51.5200,-114.5900,-24.7800,998.8332,1.8749,-7.3585,6.2055,1590575860,S
75,2132072,3.5557,-6.3936,6.0538,6.6500,-122.9200,-56.6300,998.8326,3.1322,-7.0216,6.0875,1590575860,S
74,2138309,5.7978,-5.7978,3.7974,-19.1800,-99.8900,-86.8700,998.8323,4.7257,-6.6812,5.4037,1590575860,S
75,2141970,7.1952,-3.6060,3.0413,-44.5900,-54.2500,-94.5700,998.8317,6.0062,-6.1295,4.7461,1590575860,S
75,2146650,8.3629,-2.3856,3.1107,-45.9200,-21.3500,-71.9600,998.8309,7.1266,-5.2190,4.2596,1590575860,S
75,2154740,8.6213,-0.5001,3.1202,27.6500,2.2400,-41.3700,998.8309,7.8727,-3.8359,4.4133,1590575860,S
74,2159905,9.1406,-1.5888,2.9958,13.6500,16.2400,-6.5100,998.8306,8.1210,-3.3276,4.3757,1590575860,S
75,2163487,8.7123,-1.9741,4.2401,21.4900,24.0800,5.2500,998.8300,8.0777,-3.0489,4.6503,1590575860,S
74,2171552,8.7075,-2.6728,4.7258,2.0300,14.4200,1.6100,998.8296,8.0488,-2.9742,4.7477,1590575861,S
74,2181783,8.5376,-2.0171,5.0273,-14.2800,6.0200,5.9500,998.8285,8.0626,-2.8657,4.7909,1590575861,S
75,2189987,8.4036,-2.3665,4.4794,-0.9800,3.1500,-4.6900,998.8266,8.1406,-2.7409,4.7316,1590575861,S
74,2197303,8.3342,-2.9192,4.8335,-46.6200,-12.0400,-6.1600,998.8248,8.2697,-2.8577,4.4290,1590575861,S
75,2200602,8.8271,-4.7115,3.2686,-120.4000,-18.8300,6.9300,998.8232,8.3564,-3.6003,3.6577,1590575861,S
75,2199576,8.5878,-4.6421,3.8357,-111.0900,-15.1200,4.4800,998.8222,8.2654,-4.1897,3.2092,1590575861,S
75,2197495,8.7601,-3.7735,1.8544,6.0200,-14.2100,1.8200,998.8207,8.4437,-4.0796,2.8688,1590575861,S
75,2192404,9.1454,-3.9888,1.4501,121.2400,-3.5700,-14.2100,998.8199,8.7029,-3.5004,2.8597,1590575861,S
75,2189036,8.8319,-2.7565,3.3954,50.6800,16.5200,-0.0700,998.8193,8.6664,-3.2472,3.2433,1590575861,S
75,2188451,8.8176,-3.2542,3.9601,30.3800,0.9100,-15.2600,998.8190,8.6844,-3.0243,3.4067,1590575861,S
75,2195154,8.6931,-0.1866,4.4602,40.6000,3.9200,-0.3500,998.8188,8.7158,-2.3562,3.8279,1590575862,S
75,2197277,8.6094,-1.3017,3.5031,-56.0700,7.5600,50.3300,998.8188,8.5795,-2.6918,3.9137,1590575862,S
75,2196705,8.4634,-4.5990,2.9360,-58.2400,10.9200,26.1800,998.8183,8.4186,-3.4273,3.6812,1590575862,S
75,2196581,8.2959,-4.0175,4.0367,-25.1300,4.6900,18.9700,998.8188,8.2515,-3.7600,3.7344,1590575862,S
75,2195360,7.8963,-5.8122,2.8235,-30.8700,-2.2400,3.0800,998.8193,8.1473,-4.2388,3.4387,1590575862,S
75,2189235,8.2026,-5.5322,2.9527,-3.5000,-15.7500,-18.1300,998.8199,8.2445,-4.2636,3.1655,1590575862,S
75,2189612,8.7171,-2.9767,2.2301,26.1800,-14.4200,-24.0800,998.8206,8.5921,-3.7110,2.9283,1590575862,S
75,2195204,8.8702,-3.5438,2.7398,2.9400,16.4500,9.5200,998.8217,8.5172,-3.7947,3.0377,1590575862,S
74,2202167,8.0423,-3.5677,3.7950,-14.8400,27.0200,29.1200,998.8225,8.2117,-4.1323,3.4150,1590575862,S
75,2203837,7.8939,-4.8120,3.2375,-21.7000,7.6300,8.8200,998.8232,8.0636,-4.4427,3.3781,1590575862,S
74,2200453,8.0255,-5.5418,3.0341,-16.8000,-22.1200,-15.1900,998.8242,8.1607,-4.4959,3.0594,1590575863,S
75,2205773,8.1523,-4.4291,2.8211,15.4000,-17.2200,-25.4800,998.8253,8.3859,-4.1733,2.9037,1590575863,S
74,2210739,8.4203,-4.7569,1.7348,-5.9500,10.2900,-5.1100,998.8261,8.3718,-4.3254,2.7157,1590575863,S
74,2210984,8.2792,-4.0439,4.0463,29.4700,5.2500,9.9400,998.8262,8.2811,-4.2377,3.1042,1590575863,S
74,2211526,8.4610,-4.4052,3.4792,8.5400,3.1500,30.1000,998.8271,8.1122,-4.4408,3.2623,1590575863,S
74,2207902,8.0255,-4.6158,2.2780,62.0900,18.0600,18.9000,998.8275,8.0151,-4.4679,3.4591,1590575863,S
74,2201022,8.0542,-5.3097,5.5657,-30.8000,-2.1000,-7.6300,998.8273,7.9481,-4.5760,3.4726,1590575863,S
74,2196876,7.9872,-4.6564,4.6636,25.6200,-18.6200,-38.0100,998.8267,8.1526,-4.1342,3.5516,1590575863,S
74,2203706,8.5256,-2.5125,3.7304,7.3500,-21.3500,-27.9300,998.8253,8.4904,-3.5211,3.4184,1590575863,S
74,2213796,8.8199,-3.0820,3.1920,20.7900,7.8400,-9.5200,998.8245,8.5517,-3.3169,3.4694,1590575863,S
74,2230870,8.2505,-1.5386,5.0728,15.6100,0.6300,13.0200,998.8242,8.4770,-3.0286,3.8908,1590575864,S
74,2234530,8.6094,-3.4409,3.8548,-21.9100,9.4500,26.5300,998.8242,8.3184,-3.3750,3.9477,1590575864,S
74,2225444,8.2457,-3.2566,3.2638,50.1900,30.2400,5.1800,998.8247,8.1858,-3.3145,4.2635,1590575864,S
74,2219950,7.6092,-3.9266,5.8170,7.9100,21.2100,9.5200,998.8254,7.8489,-3.4806,4.7383,1590575864,S
74,2225251,7.7097,-2.1272,5.9246,34.9300,9.3100,-4.2700,998.8266,7.7516,-3.0605,5.1688,1590575864,S
74,2230742,7.8652,-1.7779,4.6804,97.5100,13.9300,-15.5400,998.8270,7.6215,-2.3620,5.7012,1590575864,S
74,2234289,7.3460,-2.4837,7.4847,-17.5700,11.9700,7.0000,998.8267,7.4015,-2.4659,5.9420,1590575864,S
74,2242896,7.9777,0.4044,5.1159,43.1200,1.1900,-7.3500,998.8264,7.3483,-1.6548,6.2796,1590575864,S
74,2242029,7.3268,-0.6963,7.3890,-41.6500,20.6500,18.2700,998.8257,7.2616,-1.7405,6.3569,1590575864,S
74,2244408,7.2215,-0.6173,6.4295,41.1600,-4.4100,-7.7700,998.8251,7.0402,-1.2843,6.7049,1590575864,S
74,2241133,7.2550,-0.5288,7.3508,-29.8200,0.2100,3.5000,998.8240,7.2231,-1.2853,6.5073,1590575865,S
74,2232150,7.2838,-1.8449,6.9631,-40.8100,-22.4700,5.1100,998.8228,7.5169,-1.5812,6.0965,1590575865,S
74,2227116,7.7312,-2.4239,5.6614,-29.1200,-22.3300,1.7500,998.8212,7.7819,-1.8603,5.6702,1590575865,S
74,2224659,7.8341,-2.5316,5.6351,-33.9500,-26.2500,-0.0700,998.8196,7.9976,-2.0905,5.2763,1590575865,S
74,2223514,8.1212,-2.1894,4.6851,-38.5000,-34.7200,5.7400,998.8181,8.2673,-2.2509,4.7703,1590575865,S
74,2223146,8.6644,-3.6467,3.4624,-32.4800,-19.1100,5.1800,998.8161,8.4377,-2.6331,4.2476,1590575865,S
74,2223544,8.6261,-3.1322,3.4935,-8.4700,4.9700,-1.3300,998.8146,8.4701,-2.7634,4.0977,1590575865,S
74,2223582,8.3103,-4.1659,4.1659,-34.9300,2.8700,-6.4400,998.8132,8.4152,-3.0841,3.9803,1590575865,S
74,2221642,8.4873,-3.9840,3.7615,-56.9100,-7.1400,-7.9100,998.8125,8.4516,-3.3606,3.6669,1590575865,S
74,2218281,8.8487,-4.2257,3.2471,-9.3100,-10.5700,-16.9400,998.8125,8.5584,-3.3666,3.4045,1590575865,S
74,2210581,8.9850,-2.9456,3.0030,-10.4300,-2.3100,-14.8400,998.8127,8.6930,-3.1860,3.2329,1590575866,S
74,2210367,8.9468,-3.9529,2.6967,-20.3700,13.0900,-9.5900,998.8127,8.6628,-3.3624,3.1339,1590575866,S
74,2211975,8.7697,-2.6943,3.6036,-5.9500,14.7000,-5.9500,998.8134,8.6506,-3.2361,3.2962,1590575866,S
74,2216015,8.8463,-2.6489,3.9362,31.6400,12.3900,-7.7700,998.8141,8.6458,-2.9676,3.5517,1590575866,S
74,2223622,8.5472,-3.2471,4.1898,4.1300,3.0100,3.9200,998.8156,8.5591,-3.0347,3.7016,1590575866,S
74,2228450,8.6955,-3.0102,3.8070,10.5700,2.9400,-8.1200,998.8160,8.5803,-2.9319,3.7354,1590575866,S
74,2230187,8.6405,-2.7637,3.9362,-14.0000,5.1100,-3.0100,998.8164,8.5755,-2.9259,3.7509,1590575866,S
73,2223742,8.5376,-2.9599,4.3860,-18.7600,8.3300,-2.9400,998.8161,8.5152,-2.9793,3.8452,1590575866,S
74,2218131,8.2241,-2.6297,5.0417,38.7100,19.6700,-13.1600,998.8162,8.3958,-2.7252,4.2726,1590575866,S
74,2219473,8.3510,-2.9384,4.8096,23.9400,-0.4200,-1.7500,998.8159,8.3340,-2.6631,4.4297,1590575866,S
73,2225839,8.3821,-1.1486,4.6229,37.3100,-0.6300,-0.1400,998.8162,8.3409,-2.2373,4.6469,1590575867,S
73,2229771,8.5089,-2.4670,4.1898,9.4500,-0.7000,4.8300,998.8161,8.3425,-2.2889,4.6188,1590575867,S
74,2232329,8.8008,-2.5938,4.5846,-13.8600,9.7300,6.6500,998.8166,8.3029,-2.4299,4.6183,1590575867,S
73,2236479,8.5113,-3.6179,5.1278,-0.3500,5.7400,-6.5100,998.8163,8.2302,-2.5768,4.6685,1590575867,S
73,2236312,8.6166,-1.7659,4.5488,-16.3800,-0.9800,-8.4000,998.8157,8.3628,-2.4002,4.5246,1590575867,S
73,2232933,8.4586,-1.9765,5.2881,0.7700,6.6500,-1.2600,998.8152,8.3058,-2.3008,4.6787,1590575867,S
73,2234894,8.1141,-2.0937,5.6901,44.3100,-3.9200,-8.8200,998.8146,8.2048,-2.0426,4.9679,1590575867,S
73,2238086,8.2792,-1.5027,5.4700,1.9600,-18.4100,0.1400,998.8140,8.2696,-1.9071,4.9140,1590575867,S
73,2239294,8.3198,-1.8664,4.8239,-30.0300,-28.5600,13.3700,998.8127,8.4079,-2.0553,4.6101,1590575867,S
73,2239923,9.1645,-3.6873,2.8522,-71.2600,-25.2700,11.4800,998.8121,8.6633,-2.6081,3.7836,1590575867,S
72,2237645,9.0425,-2.4191,2.5436,-16.9400,-5.9500,-15.7500,998.8120,8.8652,-2.5006,3.3654,1590575868,S
73,2232184,8.9324,-4.2927,2.7541,-32.4100,3.6400,-2.4500,998.8113,8.8161,-2.8941,3.1736,1590575868,S
72,2227554,8.9827,-2.7470,3.6586,15.4700,0.1400,5.5300,998.8113,8.7801,-2.8481,3.3117,1590575868,S
73,2223924,8.9085,-2.9336,3.0843,-3.9200,-6.5800,14.2800,998.8121,8.7644,-2.9652,3.2502,1590575868,S
72,2219362,8.9707,-3.7878,3.0102,10.4300,-7.3500,18.1300,998.8127,8.6988,-3.1862,3.2172,1590575868,S
72,2216981,8.6118,-2.8714,2.9551,61.8800,4.1300,27.7200,998.8130,8.5800,-3.1897,3.5185,1590575868,S
72,2214543,8.5376,-4.8861,3.2040,9.5900,3.5000,22.4000,998.8134,8.3981,-3.5983,3.5630,1590575868,S
72,2211285,8.3605,-3.2327,3.7184,57.2600,10.5700,8.3300,998.8134,8.2976,-3.4431,3.9325,1590575868,S
72,2208801,8.2911,-4.4841,4.3645,3.7800,1.8200,-0.2100,998.8132,8.2046,-3.5819,4.0030,1590575868,S
72,2211854,8.3342,-3.7137,3.9745,30.3800,4.2700,-6.6500,998.8132,8.2013,-3.4593,4.1160,1590575868,S
72,2214676,8.3749,-2.8403,4.3765,31.8500,7.7000,-2.0300,998.8132,8.1727,-3.2297,4.3528,1590575869,S
72,2220051,8.1308,-3.4839,5.0010,0.4900,7.4200,0.2100,998.8132,8.0738,-3.2673,4.5065,1590575869,S
73,2223274,8.1667,-2.6512,5.0608,3.9900,3.8500,-2.3100,998.8130,8.0573,-3.1135,4.6429,1590575869,S
72,2225676,7.7791,-2.2971,5.6806,-81.6900,-13.6500,-10.3600,998.8125,8.2000,-3.1451,4.3634,1590575869,S
73,2223254,7.9107,-3.3069,4.0941,-47.7400,-37.1000,-19.8800,998.8129,8.4674,-3.1351,3.8268,1590575869,S
73,2219881,9.4851,-4.1611,2.4455,-84.2800,-40.6700,-17.0800,998.8130,8.7590,-3.3081,2.9166,1590575869,S
74,2219250,8.6836,-2.8211,1.6702,29.8900,-36.6100,-0.9800,998.8137,9.0012,-3.0101,2.4676,1590575869,S
73,2220006,8.9492,-1.8018,0.5551,105.7000,-16.1700,56.0000,998.8137,9.0313,-3.0106,2.3543,1590575869,S
73,2221921,8.3892,-4.4554,0.5575,67.4800,53.4100,92.0500,998.8143,8.4731,-4.0150,2.8733,1590575869,S
74,2223828,6.8842,-5.9055,2.5819,90.4400,124.8100,72.2400,998.8153,7.3601,-4.9018,4.2393,1590575869,S
74,2220022,5.1637,-4.7737,6.8674,4.6200,119.4200,42.5600,998.8161,6.1150,-5.2880,5.5511,1590575870,S
73,2217466,3.1490,-7.7719,8.1117,-1.8200,101.3600,3.0800,998.8177,5.0780,-5.4851,6.3480,1590575870,S
74,2219987,1.8568,-4.5559,8.7434,-31.0100,76.8600,-7.7700,998.8196,4.0404,-5.4730,7.0634,1590575870,S
74,2220035,0.9188,-5.3456,9.1310,-39.4800,44.4500,10.6400,998.8209,3.0899,-5.6396,7.4039,1590575870,S
74,2225177,-0.0814,-5.2714,6.7908,-79.8700,-2.2400,58.5900,998.8218,2.4945,-6.5563,6.8529,1590575870,S
74,2224254,0.5838,-9.9446,6.5922,-71.2600,-20.5800,21.7000,998.8231,2.2653,-7.3915,6.0336,1590575870,S
74,2228861,0.8566,-6.5420,6.5324,20.4400,-12.2500,-17.8500,998.8240,2.1425,-7.1338,6.3788,1590575870,S
74,2231259,1.5840,-7.7958,6.4678,-31.2200,-8.9600,-3.5700,998.8246,2.0757,-7.3875,6.1063,1590575870,S
74,2222868,1.1916,-7.6020,5.6064,6.5800,3.7800,0.0700,998.8259,1.8924,-7.4006,6.1498,1590575870,S
74,2208094,1.4979,-8.4419,5.8385,-3.4300,2.6600,-3.5700,998.8270,1.8099,-7.4910,6.0646,1590575870,S
74,2196143,1.3543,-7.8245,5.9821,4.1300,-1.3300,-2.2400,998.8283,1.7349,-7.4953,6.0812,1590575871,S
74,2191320,1.2586,-7.5781,6.1567,9.4500,2.0300,-4.1300,998.8300,1.6544,-7.4041,6.2139,1590575871,S
74,2187952,1.6510,-7.6235,6.1137,0.5600,-1.1900,0.7000,998.8308,1.6522,-7.4407,6.1706,1590575871,S
75,2185423,1.5314,-7.7049,6.1352,1.1200,1.7500,-0.8400,998.8321,1.6210,-7.4449,6.1739,1590575871,S
75,2182666,1.3352,-7.5517,6.1567,5.2500,3.1500,-1.8200,998.8337,1.5607,-7.3965,6.2471,1590575871,S
75,2180087,1.3017,-7.3843,6.3386,2.8000,1.0500,0.1400,998.8359,1.5037,-7.3686,6.2938,1590575871,S
75,2178121,1.4046,-7.4752,6.3003,0.9100,0.3500,-0.2800,998.8378,1.4822,-7.3687,6.2989,1590575871,S
75,2173111,1.3256,-7.3508,6.3290,3.7100,1.3300,-0.2800,998.8396,1.4476,-7.3340,6.3472,1590575871,S
75,2168484,1.3687,-7.4082,6.3266,2.2400,2.5900,1.1200,998.8414,1.4140,-7.3227,6.3678,1590575871,S
75,2165380,1.2802,-7.3292,6.4917,2.8000,3.8500,1.4000,998.8428,1.3614,-7.2824,6.4253,1590575871,S
76,2162072,1.2179,-7.4321,6.4223,-1.0500,1.7500,0.8400,998.8447,1.3181,-7.2988,6.4156,1590575872,S
75,2159538,1.2562,-7.5589,6.4152,0.7700,0.5600,0.3500,998.8459,1.2969,-7.3166,6.3997,1590575872,S
76,2157987,1.2251,-7.3531,6.4199,0.3500,-0.1400,-0.1400,998.8466,1.2832,-7.3166,6.4025,1590575872,S
76,2157414,1.2538,-7.3962,6.4295,0.1400,-0.1400,0.5600,998.8470,1.2731,-7.3267,6.3929,1590575872,S
76,2154442,1.2299,-7.4130,6.4487,-1.3300,-0.7000,0.7000,998.8475,1.2611,-7.3492,6.3694,1590575872,S
75,2148798,1.1533,-7.3843,6.4056,-1.6800,-0.8400,0.5600,998.8477,1.2390,-7.3722,6.3472,1590575872,S
76,2144512,1.2371,-7.4154,6.3841,-1.0500,-0.5600,0.2800,998.8472,1.2379,-7.3853,6.3320,1590575872,S
76,2142219,1.2395,-7.4178,6.3817,-0.6300,-0.2100,0.1400,998.8469,1.2368,-7.3899,6.3269,1590575872,S
76,2140115,1.0983,-7.4010,6.3912,0.4200,0.1400,-0.3500,998.8470,1.2097,-7.3805,6.3432,1590575872,S
76,2138236,1.2371,-7.4201,6.3386,-0.2800,0.0700,-0.3500,998.8474,1.2160,-7.3816,6.3406,1590575872,S
76,2136692,1.2156,-7.4154,6.3697,-0.6300,0.2800,-0.4900,998.8478,1.2162,-7.3786,6.3440,1590575873,S
76,2135392,1.2945,-7.4441,6.3577,-0.7700,0.0700,0.5600,998.8478,1.2266,-7.3910,6.3276,1590575873,S
76,2132362,1.2275,-7.4154,6.3314,-0.0700,0.1400,0.4900,998.8477,1.2229,-7.3968,6.3216,1590575873,S
75,2126900,1.2323,-7.4967,6.3266,-0.9100,-0.4200,0.9100,998.8478,1.2194,-7.4218,6.2929,1590575873,S
76,2122309,1.1653,-7.4512,6.3529,-1.1200,0.3500,-0.0700,998.8472,1.2060,-7.4229,6.2942,1590575873,S
76,2119616,1.1486,-7.5398,6.2644,-1.0500,-0.8400,-1.0500,998.8475,1.2022,-7.4388,6.2761,1590575873,S
76,2117612,1.2586,-7.4560,6.2836,-0.2800,-0.7000,-1.8900,998.8481,1.2263,-7.4273,6.2851,1590575873,S
75,2116968,1.2562,-7.4393,6.3123,1.3300,-0.0700,-1.5400,998.8480,1.2405,-7.4033,6.3105,1590575873,S
76,2117572,1.2323,-7.4584,6.3338,-0.9100,-0.5600,-0.5600,998.8482,1.2428,-7.4101,6.3021,1590575873,S
75,2119090,1.2706,-7.4919,6.2572,-0.7000,-0.6300,-0.5600,998.8481,1.2531,-7.4244,6.2832,1590575873,S
75,2120922,1.3208,-7.6164,6.3051,-0.6300,-0.1400,-0.4900,998.8492,1.2654,-7.4375,6.2652,1590575874,S
75,2120673,1.2921,-7.4847,6.2907,0.9100,-0.3500,-0.4900,998.8495,1.2737,-7.4312,6.2710,1590575874,S
76,2118122,1.2754,-7.4943,6.3147,0.0700,0.2100,-0.3500,998.8500,1.2731,-7.4272,6.2759,1590575874,S
75,2117142,1.2634,-7.3938,6.3218,-0.3500,-0.0700,-0.3500,998.8504,1.2733,-7.4194,6.2850,1590575874,S
75,2117950,1.3041,-7.5350,6.2859,-0.3500,-0.2100,-0.1400,998.8509,1.2786,-7.4308,6.2705,1590575874,S
75,2118393,1.3304,-7.4010,6.3147,1.0500,0.6300,-0.2100,998.8515,1.2873,-7.4105,6.2927,1590575874,S
75,2118678,1.3065,-7.4441,6.2931,-0.0700,0.2100,0.0700,998.8527,1.2891,-7.4126,6.2899,1590575874,S
75,2118985,1.2826,-7.4536,6.3218,-0.2100,-0.0700,0.2100,998.8537,1.2856,-7.4167,6.2857,1590575874,S
75,2119265,1.2969,-7.5278,6.2692,0.4900,0.1400,-0.0700,998.8543,1.2858,-7.4231,6.2782,1590575874,S
75,2119037,1.2754,-7.4489,6.3242,0.9100,0.2100,-0.2100,998.8544,1.2829,-7.4123,6.2915,1590575874,S
74,2118713,1.2084,-7.4345,6.3362,0.8400,0.5600,0.0700,998.8544,1.2645,-7.4030,6.3061,1590575875,S
75,2116143,1.3519,-7.4441,6.3912,-1.0500,-0.1400,0.1400,998.8547,1.2790,-7.4051,6.3008,1590575875,S
74,2113927,1.3184,-7.5470,6.3601,-0.4900,-0.1400,0.0700,998.8542,1.2830,-7.4152,6.2880,1590575875,S
75,2113100,1.2873,-7.5087,6.3194,-0.1400,-0.2800,0.0700,998.8538,1.2823,-7.4234,6.2785,1590575875,S
74,2113103,1.2514,-7.4824,6.3482,-0.1400,-0.0700,0.0700,998.8531,1.2738,-7.4243,6.2792,1590575875,S
74,2113403,1.2562,-7.4919,6.3482,-0.7000,-0.3500,0.2100,998.8528,1.2681,-7.4322,6.2709,1590575875,S
74,2114107,1.3328,-7.5254,6.2836,-0.4900,-0.4200,0.2100,998.8520,1.2792,-7.4453,6.2531,1590575875,S
74,2115188,1.2826,-7.4943,6.3147,0.2100,-0.2100,0.2100,998.8511,1.2776,-7.4456,6.2531,1590575875,S
74,2116749,1.2419,-7.4536,6.2883,0.1400,0.0700,0.0700,998.8511,1.2692,-7.4430,6.2579,1590575875,S
74,2117803,1.2275,-7.4800,6.3194,-0.4900,0.0700,0.2800,998.8521,1.2574,-7.4460,6.2567,1590575875,S
74,2116766,1.3208,-7.4465,6.2883,-0.4900,0.0700,0.2800,998.8528,1.2673,-7.4467,6.2539,1590575876,S
74,2115535,1.2682,-7.5206,6.2572,-0.4900,0.0700,-0.0700,998.8525,1.2660,-7.4543,6.2451,1590575876,S
74,2115664,1.2826,-7.4608,6.2836,0.0700,0.1400,-0.2100,998.8522,1.2691,-7.4475,6.2526,1590575876,S
73,2116080,1.2897,-7.4728,6.2620,-0.1400,0.0700,-0.2100,998.8511,1.2733,-7.4467,6.2527,1590575876,S
73,2116422,1.3065,-7.5637,6.3147,-0.1400,0.0700,-0.0700,998.8500,1.2765,-7.4496,6.2485,1590575876,S
73,2116955,1.2921,-7.5135,6.3123,-0.0700,0.1400,-0.0700,998.8486,1.2771,-7.4474,6.2511,1590575876,S
73,2117703,1.2634,-7.4776,6.3099,-0.0700,-0.1400,-0.0700,998.8470,1.2738,-7.4452,6.2543,1590575876,S
73,2118621,1.2610,-7.5087,6.2716,-0.1400,-0.0700,0.0700,998.8455,1.2696,-7.4511,6.2482,1590575876,S
73,2118915,1.2443,-7.4417,6.3147,-0.1400,-0.0700,0.0700,998.8443,1.2636,-7.4464,6.2550,1590575876,S
73,2117908,1.2443,-7.5111,6.2836,-0.2100,-0.0700,0.0700,998.8442,1.2580,-7.4518,6.2497,1590575876,S
73,2117228,1.2873,-7.4943,6.2907,0.0700,-0.1400,0.0700,998.8444,1.2625,-7.4521,6.2485,1590575877,S
73,2118208,1.2323,-7.4919,6.2429,-0.0700,-0.1400,0.0700,998.8443,1.2560,-7.4586,6.2420,1590575877,S
72,2119464,1.2347,-7.4895,6.2285,-0.2100,0.1400,0.2100,998.8439,1.2496,-7.4651,6.2355,1590575877,S
72,2120307,1.2730,-7.4943,6.3075,0.0700,0.5600,0.2800,998.8436,1.2486,-7.4584,6.2437,1590575877,S
72,2121497,1.2036,-7.5015,6.2859,0.0700,0.0700,0.0700,998.8436,1.2376,-7.4586,6.2457,1590575877,S
72,2123342,1.2443,-7.4847,6.2524,0.1400,0.0700,-0.0700,998.8436,1.2384,-7.4580,6.2462,1590575877,S
72,2124871,1.2084,-7.5063,6.2524,0.4200,0.4200,-0.2800,998.8428,1.2314,-7.4539,6.2525,1590575877,S
72,2125237,1.2371,-7.4991,6.3075,2.1000,0.2100,-1.0500,998.8424,1.2361,-7.4286,6.2816,1590575877,S
72,2124412,1.3639,-7.3771,6.3577,3.0100,0.9100,-0.9800,998.8425,1.2630,-7.3808,6.3324,1590575877,S
72,2123122,1.3304,-7.4010,6.3290,1.6800,2.0300,0.1400,998.8430,1.2666,-7.3584,6.3577,1590575877,S
72,2122061,1.2108,-7.4417,6.3338,-1.0500,0.8400,1.1200,998.8434,1.2446,-7.3793,6.3377,1590575878,S
71,2121354,1.1868,-7.5206,6.3266,0.1400,0.8400,-0.0700,998.8438,1.2276,-7.3856,6.3337,1590575878,S
72,2120893,1.2275,-7.3938,6.4008,1.3300,0.4200,-0.7700,998.8445,1.2290,-7.3615,6.3615,1590575878,S
72,2120745,1.2299,-7.4201,6.4199,0.7700,0.4900,-0.6300,998.8445,1.2285,-7.3466,6.3788,1590575878,S
72,2120628,1.1749,-7.3795,6.3601,0.2800,0.2100,-0.2100,998.8445,1.2179,-7.3469,6.3805,1590575878,S
72,2120641,1.1868,-7.4297,6.3218,-0.9100,0.0700,0.4900,998.8445,1.2081,-7.3698,6.3558,1590575878,S
71,2119598,1.2179,-7.4656,6.4056,-0.5600,-0.0700,0.2100,998.8448,1.2066,-7.3790,6.3455,1590575878,S
71,2117673,1.2156,-7.4465,6.4080,-0.7700,-0.4900,0.0700,998.8450,1.2077,-7.3875,6.3353,1590575878,S
71,2116538,1.2969,-7.4752,6.3386,-1.6100,-1.1200,0.4200,998.8456,1.2256,-7.4150,6.2997,1590575878,S
71,2116455,1.2419,-7.4465,6.3745,-0.9800,-0.6300,0.4900,998.8459,1.2268,-7.4252,6.2875,1590575878,S
71,2116399,1.2275,-7.4178,6.3482,-1.3300,-0.5600,0.4900,998.8459,1.2255,-7.4352,6.2759,1590575879,S
70,2116715,1.2682,-7.4632,6.3218,-0.6300,-0.3500,0.1400,998.8455,1.2332,-7.4398,6.2689,1590575879,S
71,2117306,1.2873,-7.4441,6.3625,-0.7000,-0.4900,0.4900,998.8460,1.2414,-7.4422,6.2644,1590575879,S
71,2117919,1.2275,-7.5230,6.3194,-1.4700,-0.4200,0.7700,998.8464,1.2335,-7.4628,6.2414,1590575879,S
71,2118058,1.1797,-7.4847,6.3075,0.4900,0.2800,0.9100,998.8469,1.2153,-7.4633,6.2444,1590575879,S
70,2116370,1.1701,-7.5374,6.2716,-0.4900,-0.0700,-0.1400,998.8468,1.2056,-7.4698,6.2385,1590575879,S
70,2115228,1.2132,-7.5541,6.2644,0.4200,-0.2800,-0.7000,998.8468,1.2103,-7.4670,6.2409,1590575879,S
70,2115708,1.1725,-7.4728,6.2788,0.6300,-0.2800,-0.6300,998.8469,1.2070,-7.4569,6.2537,1590575879,S
70,2116190,1.2036,-7.5230,6.2907,-0.2100,-0.2100,-0.8400,998.8477,1.2100,-7.4536,6.2570,1590575879,S
70,2116764,1.2036,-7.4536,6.2859,0.5600,0.1400,-0.9800,998.8488,1.2132,-7.4372,6.2758,1590575879,S
70,2117314,1.2299,-7.5015,6.2644,0.0700,-0.3500,-0.8400,998.8499,1.2217,-7.4376,6.2737,1590575880,S
70,2118217,1.1797,-7.4728,6.2524,1.8900,0.9100,-1.4000,998.8503,1.2173,-7.4122,6.3046,1590575880,S
70,2118216,1.2299,-7.4632,6.2836,-2.5900,1.1200,0.1400,998.8508,1.2132,-7.4266,6.2884,1590575880,S
70,2116070,1.3496,-7.7695,6.0969,-5.1100,-0.4900,0.7700,998.8511,1.2333,-7.5130,6.1810,1590575880,S
69,2112642,1.2060,-7.8221,6.0778,-1.8200,-1.3300,0.7700,998.8514,1.2246,-7.5748,6.1068,1590575880,S
70,2111438,1.2371,-7.5924,6.1687,3.4300,-0.4200,-1.3300,998.8514,1.2358,-7.5408,6.1465,1590575880,S
70,2113360,1.2132,-7.5517,6.1519,1.1200,-0.0700,-0.4200,998.8519,1.2340,-7.5317,6.1580,1590575880,S
70,2115656,1.3352,-7.6235,6.1208,0.6300,1.5400,-0.1400,998.8522,1.2472,-7.5257,6.1627,1590575880,S
70,2116793,1.3137,-7.6403,6.0371,2.1700,2.8700,-0.7000,998.8527,1.2527,-7.5077,6.1835,1590575880,S
70,2115961,1.0648,-7.5733,6.1639,-4.6900,10.0800,-1.1200,998.8532,1.1779,-7.4585,6.2573,1590575880,S
70,2113803,1.0768,-7.5709,6.1687,-18.3400,2.8000,3.4300,998.8542,1.1236,-7.5940,6.1024,1590575881,S
70,2110804,1.0457,-8.1811,5.6518,-10.0100,3.0800,2.3100,998.8555,1.0782,-7.7367,5.9289,1590575881,S
69,2106325,0.7825,-8.1380,5.6183,-2.2400,1.5400,-0.0700,998.8560,1.0118,-7.7914,5.8686,1590575881,S
70,2103135,0.7226,-8.2624,5.6806,14.7000,-1.4000,-4.1300,998.8566,0.9836,-7.7240,5.9618,1590575881,S
70,2104581,1.1486,-7.5087,6.0419,14.6300,-1.4000,-3.6400,998.8580,1.0481,-7.5880,6.1233,1590575881,S
70,2109111,1.1198,-7.7049,6.0443,4.6200,-0.7700,-1.1900,998.8591,1.0722,-7.5720,6.1389,1590575881,S
70,2113215,1.1079,-7.6211,6.0849,1.3300,0.8400,-1.0500,998.8605,1.0820,-7.5556,6.1574,1590575881,S
70,2115813,0.9691,-7.6427,6.2142,-0.0700,-1.1900,1.6100,998.8617,1.0533,-7.5856,6.1254,1590575881,S
70,2118549,1.1318,-7.6738,6.2166,-0.2800,-3.9200,0.5600,998.8626,1.0785,-7.6207,6.0773,1590575881,S
70,2120101,1.3161,-7.5206,6.0132,-1.2600,1.8900,0.7000,998.8629,1.1164,-7.6144,6.0782,1590575881,S
70,2118214,0.9906,-7.6140,6.1232,2.3800,-1.6800,-0.9100,998.8633,1.1035,-7.6022,6.0959,1590575882,S
70,2119103,1.2562,-7.6857,6.0754,0.7700,0.4900,-0.0700,998.8636,1.1309,-7.5995,6.0942,1590575882,S
70,2119940,1.0504,-7.6331,6.0754,0.7700,0.4900,-0.9100,998.8646,1.1181,-7.5881,6.1108,1590575882,S
70,2119740,1.1390,-7.6905,6.1065,0.7700,0.2100,-0.9100,998.8660,1.1250,-7.5811,6.1181,1590575882,S
70,2120351,1.0839,-7.7121,6.0706,0.5600,0.4200,-0.5600,998.8672,1.1170,-7.5846,6.1152,1590575882,S
70,2120709,1.1151,-7.7336,6.1567,0.7000,0.1400,-0.2800,998.8669,1.1146,-7.5846,6.1157,1590575882,S
70,2120098,1.1342,-7.7097,6.0467,-0.1400,0.2100,-0.2100,998.8665,1.1176,-7.5980,6.0985,1590575882,S
70,2116462,1.0816,-7.6881,6.0251,0.5600,0.2100,0.0700,998.8661,1.1089,-7.6087,6.0868,1590575882,S
70,2114155,1.0792,-7.6403,6.0538,1.1900,0.2800,-0.2100,998.8665,1.1032,-7.6038,6.0939,1590575882,S
71,2115131,1.0744,-7.6140,6.0682,0.9800,0.3500,-0.3500,998.8668,1.0985,-7.5957,6.1048,1590575882,S
71,2116620,1.0552,-7.6570,6.0658,1.6800,0.6300,-0.6300,998.8663,1.0909,-7.5840,6.1208,1590575883,S
71,2117267,1.1007,-7.6355,6.0179,1.2600,0.6300,-0.7000,998.8660,1.0951,-7.5787,6.1265,1590575883,S
71,2117915,1.1007,-7.6499,6.0873,0.9800,0.0700,-0.5600,998.8654,1.0987,-7.5762,6.1290,1590575883,S
71,2119161,1.1653,-7.7073,6.0419,0.8400,0.4200,-0.3500,998.8647,1.1113,-7.5828,6.1186,1590575883,S
71,2119873,1.1581,-7.6953,6.0730,1.0500,0.4200,-0.7000,998.8639,1.1217,-7.5793,6.1210,1590575883,S
71,2118850,1.0792,-7.7073,6.1208,0.9100,0.4900,-0.5600,998.8636,1.1126,-7.5754,6.1275,1590575883,S
71,2118921,1.1509,-7.6738,6.0467,0.5600,0.2100,-0.3500,998.8632,1.1209,-7.5823,6.1174,1590575883,S
71,2120347,1.0624,-7.6905,6.0921,0.9100,0.4200,-0.3500,998.8627,1.1083,-7.5822,6.1199,1590575883,S
71,2122085,1.0792,-7.6546,6.1065,0.9100,0.3500,-0.4900,998.8623,1.1031,-7.5767,6.1276,1590575883,S
71,2123842,1.0935,-7.7145,6.1089,0.6300,0.2800,-0.2800,998.8617,1.0997,-7.5809,6.1229,1590575883,S
71,2125857,1.1414,-7.6499,5.9892,0.7700,0.3500,-0.3500,998.8606,1.1095,-7.5884,6.1119,1590575884,S
71,2127968,1.1198,-7.6499,6.1065,0.5600,0.4900,-0.2800,998.8599,1.1103,-7.5839,6.1174,1590575884,S
72,2129224,1.1462,-7.6355,6.1376,-0.9100,0.8400,-0.8400,998.8596,1.1173,-7.5758,6.1261,1590575884,S
71,2127740,1.1294,-7.6881,6.0921,-0.9800,0.6300,-0.7700,998.8594,1.1199,-7.5810,6.1192,1590575884,S
72,2126121,1.1390,-7.6140,6.1137,3.4300,-0.5600,-1.1200,998.8594,1.1325,-7.5573,6.1461,1590575884,S
72,2125631,0.7825,-7.4225,6.7262,-9.9400,-19.7400,4.2700,998.8597,1.1107,-7.7484,5.9076,1590575884,S
72,2128401,0.8112,-8.6189,7.0038,9.6600,-52.7800,-0.7000,998.8601,1.2881,-7.9634,5.5763,1590575884,S
72,2134900,1.4405,-9.5282,7.2455,47.8100,-101.8500,-26.1100,998.8603,1.9259,-7.7555,5.6845,1590575884,S
72,2142290,3.2016,-8.2816,6.1472,75.3200,-99.0500,-75.9500,998.8602,3.0993,-6.9466,6.1894,1590575884,S
72,2147947,5.0321,-5.8792,4.7593,-10.2900,-110.1100,-98.7700,998.8603,4.6464,-6.4993,5.6869,1590575884,S
72,2151369,7.2479,-3.6012,2.3785,-49.5600,-67.2700,-107.6600,998.8611,6.1116,-5.9799,4.8020,1590575885,S
72,2152442,8.4897,-2.6943,2.3450,-13.3700,-20.7900,-88.4100,998.8602,7.3285,-4.9691,4.2157,1590575885,S
72,2157253,9.1071,-2.1105,2.2134,-36.3300,2.3800,-35.1400,998.8601,7.9317,-4.3746,3.7577,1590575885,S
73,2164556,9.3751,-1.7683,3.1322,-0.6300,7.1400,-16.2400,998.8597,8.2781,-3.7114,3.7240,1590575885,S
72,2172265,9.0066,-2.5555,3.1202,-42.3500,18.5500,-23.3100,998.8591,8.4350,-3.5051,3.5686,1590575885,S
73,2183057,8.8750,-0.2489,4.7498,8.1200,24.9200,-13.9300,998.8582,8.5538,-2.7325,3.9416,1590575885,S
73,2191986,8.7912,-2.0985,4.4698,-54.9500,6.0900,3.2900,998.8571,8.5452,-2.8066,3.9080,1590575885,S
73,2200388,9.2315,-3.6179,3.4241,-173.9500,-10.3600,13.3700,998.8555,8.4836,-3.6676,3.2783,1590575885,S
73,2198203,8.9372,-5.8385,0.9811,-169.4000,38.5700,-53.2000,998.8540,8.1633,-4.8058,2.5367,1590575885,S
73,2191772,8.7123,-0.9547,3.7496,-25.2700,43.2600,-41.9300,998.8523,8.5312,-3.7464,3.0582,1590575885,S
73,2187325,8.3342,1.2227,4.9101,55.7200,32.2700,-17.6400,998.8516,8.8223,-2.2940,3.6158,1590575886,S
73,2185665,9.1525,-2.2875,5.2427,15.0500,4.1300,-7.8400,998.8504,8.8190,-2.1385,3.7180,1590575886,S
73,2184693,8.7577,-2.5172,4.2281,11.1300,-2.7300,-12.3900,998.8495,8.8480,-2.0459,3.7012,1590575886,S
73,2185660,8.7362,-1.8114,4.3525,15.6800,-9.7300,-16.6600,998.8483,8.9381,-1.7717,3.6251,1590575886,S
74,2186793,9.1214,-0.6987,3.8166,54.9500,-10.5000,-29.1900,998.8478,9.1397,-1.1129,3.3760,1590575886,S
73,2187894,9.1358,-0.2824,4.0319,18.4800,-19.6000,-28.0700,998.8473,9.3429,-0.6194,2.9149,1590575886,S
74,2187044,9.6957,-0.4355,3.1801,-41.9300,-26.8100,-25.6200,998.8471,9.5286,-0.3812,2.2872,1590575886,S
74,2185400,9.5474,0.1196,2.6273,-29.5400,-11.1300,-23.3800,998.8475,9.6492,-0.0801,1.7484,1590575886,S
74,2184141,9.0832,0.8566,2.4048,89.6000,-33.1100,-6.6500,998.8467,9.7890,0.3301,-0.4864,1590575886,S
74,2185689,10.3681,4.4100,-0.2512,142.7300,-0.3500,58.3100,998.8459,9.6579,0.3267,1.6697,1590575886,S
74,2191082,9.8345,-0.0790,1.0935,88.2700,58.9400,88.9700,998.8457,9.7518,-0.3874,0.9606,1590575887,S
74,2203181,9.6622,-2.2397,3.9075,7.4200,102.4100,64.8900,998.8462,9.7343,-1.0701,0.5179,1590575887,S
74,2215056,8.1619,-2.8355,5.8481,71.7500,105.3500,14.0700,998.8467,9.6109,-1.1721,1.5579,1590575887,S
74,2226484,7.0684,-4.7210,6.7238,22.6100,46.6200,8.8200,998.8465,9.5052,-1.4275,1.9454,1590575887,S
74,2231130,5.3408,-1.7539,6.7382,52.5700,49.2800,-1.5400,998.8462,9.2861,-1.2681,2.8862,1590575887,S
74,2233966,4.5631,0.9141,8.1500,50.8900,41.0200,13.3000,998.8448,8.8861,-0.5971,4.1049,1590575887,S
74,2237714,3.9529,0.3637,8.2385,-8.6100,-3.7100,29.5400,998.8428,8.8038,-0.5641,4.2830,1590575887,S
74,2243299,6.2955,-1.9956,8.0136,-11.2000,-30.6600,23.8700,998.8412,9.0465,-1.0726,3.6305,1590575887,S
74,2246818,7.4752,-2.2469,7.1737,-114.8000,-69.5800,34.9300,998.8388,6.0581,-1.5944,7.5451,1590575887,S
74,2245884,6.9966,-2.6752,6.2764,-26.8800,-46.5500,19.2500,998.8365,6.6979,-2.0892,6.8515,1590575887,S
75,2243747,7.7121,-3.3835,5.7811,-54.4600,-61.0400,14.1400,998.8348,7.3908,-2.6616,5.8705,1590575888,S
74,2239317,7.7456,-3.1848,4.7545,-85.6100,-69.0900,29.2600,998.8331,7.8904,-3.2416,4.8378,1590575888,S
75,2231245,7.0349,-4.2066,3.0987,-68.0400,-76.8600,41.5800,998.8315,8.1555,-3.8300,3.8716,1590575888,S
74,2226568,7.9609,-6.9105,-0.8614,-39.1300,-49.7000,43.6100,998.8306,8.3369,-4.5074,2.5199,1590575888,S
74,2223738,7.9872,-8.1021,-1.8329,-30.2400,-7.2800,26.2500,998.8302,8.2790,-4.8935,1.9190,1590575888,S
75,2220887,7.8604,-7.8748,-0.9404,-2.1000,22.3300,-7.7700,998.8303,8.2019,-5.0804,1.7574,1590575888,S
74,2219099,7.6331,-7.0181,-0.2728,9.7300,38.7100,-33.0400,998.8315,8.1332,-5.2315,1.6290,1590575888,S
74,2218236,7.9992,-5.3073,0.2871,24.5700,47.2500,-30.4500,998.8333,8.0882,-5.2683,1.7311,1590575888,S
74,2218107,7.5757,-5.0489,1.3926,30.1700,62.7200,-28.4900,998.8357,7.9459,-5.3232,2.1673,1590575888,S
74,2218923,7.0421,-4.7545,3.4672,30.1000,84.2100,-46.5500,998.8380,7.7709,-5.1382,3.0629,1590575888,S
74,2222699,8.0112,-0.6485,7.1856,-0.2800,73.1500,-32.9000,998.8398,7.8393,-4.1733,4.1593,1590575889,S
74,2232043,6.8100,-2.6058,5.5585,11.6200,46.5500,18.3400,998.8413,7.4941,-4.0585,4.8516,1590575889,S
75,2229749,6.1878,-3.5773,6.6544,44.3800,22.4700,-11.9700,998.8420,7.2062,-3.7611,5.4859,1590575889,S
74,2231278,5.8624,-1.1821,7.5637,43.2600,1.1900,0.2100,998.8426,7.0608,-3.0798,6.0688,1590575889,S
75,2239662,7.0516,-2.2277,7.7671,-11.4100,-0.8400,28.9100,998.8420,6.8555,-3.0924,6.2936,1590575889,S
75,2245351,6.3003,-3.6323,6.4439,-43.6800,-32.4100,36.8200,998.8411,6.8380,-3.6075,6.0331,1590575889,S
75,2246320,6.7478,-4.1587,6.0036,-39.0600,-28.5600,26.5300,998.8396,6.8828,-4.0245,5.7097,1590575889,S
75,2242019,7.3077,-5.0847,5.7308,-13.5800,-21.3500,10.5700,998.8373,6.9404,-4.2699,5.4561,1590575889,S
75,2236473,6.7382,-4.1898,5.6447,-2.0300,-33.3200,21.0000,998.8358,6.9853,-4.3664,5.3208,1590575889,S
75,2232967,6.6281,-4.7928,5.1111,18.6900,-36.1900,34.1600,998.8348,6.9470,-4.5523,5.2140,1590575889,S
76,2230587,6.6042,-5.8983,3.7017,-7.9800,-37.3100,27.1600,998.8336,7.0077,-4.9979,4.6992,1590575890,S
76,2228631,7.3914,-6.9392,2.5220,-21.5600,-23.1000,8.9600,998.8329,7.1401,-5.4033,3.9992,1590575890,S
76,2227099,7.7192,-8.1093,1.9621,32.4800,17.2900,-21.5600,998.8336,7.2118,-5.3174,3.9857,1590575890,S
76,2226543,6.5755,-4.9627,4.8168,36.1200,38.7100,-34.7900,998.8352,7.1257,-4.9790,4.5391,1590575890,S
76,2228141,6.8339,-3.7161,6.6568,127.8900,43.2600,-67.8300,998.8372,7.0663,-3.7860,5.6483,1590575890,S
76,2228643,6.3864,-1.6032,7.7480,-32.9700,-20.2300,-7.4200,998.8390,7.1941,-3.4502,5.7019,1590575890,S
76,2225748,6.9272,-4.0343,5.4509,-75.9500,-64.4700,43.8900,998.8396,7.3672,-4.1073,5.0026,1590575890,S
75,2222582,7.6475,-6.3434,1.6869,-52.0100,-54.3900,31.4300,998.8394,7.6276,-4.8506,3.8029,1590575890,S
76,2220080,7.9801,-6.6449,1.3663,-3.1500,-14.3500,15.4000,998.8389,7.6781,-5.1879,3.2099,1590575890,S
75,2217961,7.7001,-6.3864,1.9813,9.3800,2.3100,-6.7900,998.8387,7.7012,-5.2813,2.9950,1590575890,S
76,2216755,7.5374,-6.1161,3.0078,29.1900,3.0800,1.2600,998.8396,7.6404,-5.2973,3.1198,1590575891,S
75,2217514,7.4656,-6.8913,3.0700,42.5600,9.0300,-3.2200,998.8405,7.5378,-5.3313,3.3061,1590575891,S
75,2221948,7.8341,-6.3242,2.4215,23.1000,21.7000,-47.2500,998.8408,7.7053,-5.1028,3.2802,1590575891,S
75,2227187,8.1308,-2.9767,3.5222,58.5900,31.9200,-58.5200,998.8411,8.0657,-4.1489,3.7285,1590575891,S
75,2233794,8.0471,-3.9123,3.3882,-66.0800,37.8700,-49.3500,998.8418,8.1191,-4.1406,3.6202,1590575891,S
75,2236893,7.5517,-1.8616,5.5801,83.3700,84.3500,-46.6200,998.8423,7.9629,-3.2081,4.7403,1590575891,S
74,2244176,6.0897,-0.8614,8.1212,4.2700,60.7600,-17.4300,998.8426,7.5697,-2.7420,5.5993,1590575891,S
75,2254618,5.6734,-1.0289,9.6718,17.2200,10.2200,-17.9200,998.8422,7.4500,-2.3758,5.9181,1590575891,S
75,2265165,6.5300,-0.5288,8.9492,33.6000,-45.1500,-2.1000,998.8402,7.6180,-1.9526,5.8586,1590575891,S
75,2268611,7.0038,-0.6891,6.6066,-19.2500,-62.5100,17.8500,998.8380,7.8813,-1.8432,5.5370,1590575891,S
74,2264916,7.5852,-0.8160,5.1781,-26.6700,-39.4100,42.9100,998.8359,7.9477,-1.9861,5.3907,1590575892,S
75,2256781,7.9848,-2.5029,4.0965,-50.4700,-33.9500,44.2400,998.8332,8.0946,-2.5574,4.9099,1590575892,S
74,2249852,8.0423,-3.7496,4.1013,-28.6300,-16.9400,32.9700,998.8306,8.0703,-3.0936,4.6335,1590575892,S
74,2247681,8.1619,-4.1085,4.2473,7.7000,-16.9400,28.3500,998.8295,7.9967,-3.4085,4.5392,1590575892,S
74,2247779,7.8102,-4.3980,4.3932,11.3400,-12.2500,29.4000,998.8284,7.8542,-3.7182,4.5451,1590575892,S
74,2247834,7.0875,-4.6947,3.8166,19.9500,-6.7900,27.7900,998.8269,7.6865,-4.0450,4.5526,1590575892,S
74,2248508,7.4680,-3.7519,4.7282,-12.1800,-16.0300,42.4900,998.8264,7.5559,-4.2959,4.5413,1590575892,S
74,2249928,6.9894,-5.4341,4.0175,5.1100,-28.0700,43.1900,998.8258,7.4008,-4.7259,4.3663,1590575892,S
75,2246528,6.8028,-6.7908,2.8666,-48.5100,-32.7600,54.1100,998.8248,7.1890,-5.5386,3.7164,1590575892,S
74,2241403,6.5300,-8.4658,1.0816,9.8000,-15.6800,33.1100,998.8250,7.0546,-6.0266,3.1755,1590575892,S
75,2238708,6.1663,-7.3627,2.7350,9.0300,-9.7300,15.9600,998.8257,6.8690,-6.2746,3.1009,1590575893,S
74,2237931,6.6018,-5.8600,1.6534,-6.5100,-11.6900,24.5000,998.8268,6.8853,-6.4176,2.7527,1590575893,S
75,2238827,5.9198,-8.0877,2.8714,-47.4600,-20.6500,26.3200,998.8285,6.4581,-6.9641,2.4422,1590575893,S
75,2234876,6.6329,-13.5099,-4.6564,-181.0200,-29.4000,-22.1200,998.8300,4.8605,-8.5013,0.5232,1590575893,S
75,2235206,7.0110,-9.3847,-4.7019,-25.1300,41.3000,-87.0800,998.8317,3.9210,-8.9886,-0.0058,1590575893,S
75,2236669,6.1496,-5.8720,-3.3284,63.6300,111.7900,-105.7000,998.8340,5.0958,-8.3765,0.1942,1590575893,S
75,2234791,5.9892,-3.1777,0.3685,161.2800,170.6600,-91.7700,998.8375,7.3571,-6.0736,2.2703,1590575893,S
76,2240235,5.0345,-1.4883,4.6899,248.6400,167.0200,-153.8600,998.8414,7.9419,-3.3567,4.6722,1590575893,S
75,2252121,3.0413,6.1352,8.2457,172.0600,79.1700,-161.2800,998.8451,8.7563,0.3907,4.3984,1590575893,S
76,2272597,2.8690,8.8008,7.2168,76.1600,28.7000,-94.7100,998.8472,8.4119,2.0881,4.5880,1590575893,S
76,2291757,2.8905,7.8365,6.0873,41.7200,15.1200,-28.8400,998.8471,3.7589,2.1648,8.7951,1590575894,S
76,2306791,3.1394,7.5087,3.9075,26.8100,13.0200,-10.5700,998.8452,4.1383,3.6379,8.1124,1590575894,S
76,2315695,2.4263,10.1456,6.3147,-26.0400,-33.5300,25.2000,998.8431,4.2983,3.9175,7.8960,1590575894,S
76,2316988,4.4172,4.7689,5.5848,-73.0800,-12.1100,50.3300,998.8407,4.4973,3.3542,8.0432,1590575894,S
76,2316188,5.1182,7.3986,6.4582,-161.5600,9.7300,72.2400,998.8388,4.1135,2.0833,8.6550,1590575894,S
76,2312738,4.8000,0.5456,9.6670,-55.6500,4.9700,54.8800,998.8378,3.7463,1.1616,8.9881,1590575894,S
76,2310451,4.5129,2.5603,9.8106,-5.9500,-23.7300,8.1200,998.8364,3.9618,1.2675,8.8808,1590575894,S
77,2309839,4.9962,1.6128,8.2026,-10.9900,-24.6400,7.0700,998.8347,4.2335,1.2791,8.7528,1590575894,S
77,2307698,5.1948,0.4570,8.9013,-10.7100,-44.2400,21.0000,998.8325,4.5014,1.0042,8.6544,1590575894,S
77,2306956,7.1163,-0.0239,6.3458,-19.7400,-38.4300,22.5400,998.8307,4.7942,0.6325,8.5315,1590575894,S
77,2307820,7.1115,-0.7920,6.1663,27.0200,-27.2300,-2.1700,998.8294,5.3265,0.5564,8.2152,1590575895,S
77,2305376,9.5306,2.9480,6.8004,7.9100,-30.9400,6.8600,998.8278,6.3778,0.8703,7.3984,1590575895,S
77,2298505,9.6072,-2.1966,4.2401,-57.2600,4.4100,-16.3800,998.8257,9.5950,0.4961,1.9649,1590575895,S
77,2287734,7.8939,-2.4000,5.3025,-158.5500,28.4200,-3.9900,998.8246,8.9549,-0.5942,3.9530,1590575895,S
77,2274189,7.3268,-2.7852,7.4154,-40.1800,42.7700,-28.9100,998.8243,8.6860,-0.8590,4.4706,1590575895,S
78,2268833,5.8361,-2.8092,8.4299,6.2300,20.0900,1.7500,998.8241,8.0622,-1.3964,5.4057,1590575895,S
77,2267443,6.1687,-1.0935,7.4991,59.4300,-41.4400,36.9600,998.8242,7.6709,-1.3584,5.9567,1590575895,S
78,2266197,6.0969,-0.2082,4.8933,35.3500,-10.0100,67.0600,998.8242,6.8864,-1.4649,6.8266,1590575895,S
78,2264705,7.2407,-5.6471,5.4126,-44.3800,-9.4500,28.5600,998.8238,7.0979,-2.5440,6.2705,1590575895,S
78,2260896,8.2959,-8.1619,6.0849,2.8000,11.9700,-64.2600,998.8236,7.3889,-2.5237,5.9334,1590575895,S
78,2255574,9.1454,-2.6704,6.3051,48.2300,21.3500,-83.3700,998.8240,7.7606,-1.7322,5.7396,1590575896,S
78,2253486,7.7312,-0.2847,3.7161,198.4500,71.7500,-96.6700,998.8246,8.0530,-0.0719,5.5959,1590575896,S
77,2251676,5.2881,5.1829,5.0919,146.0200,76.1600,-132.6500,998.8242,6.1511,2.3677,7.2615,1590575896,S
77,2251058,3.0724,7.2861,5.2259,61.0400,91.4900,-73.6400,998.8242,4.8998,3.9465,7.5225,1590575896,S
77,2254623,1.4596,7.8150,5.9390,41.5800,73.7100,-17.4300,998.8237,3.7814,4.8336,7.6490,1590575896,S
77,2263605,-0.1579,7.3436,6.8602,-23.8700,31.8500,50.4700,998.8224,2.9436,4.7578,8.0541,1590575896,S
77,2276078,-0.0646,5.1876,10.4136,-74.5500,-28.9800,48.8600,998.8212,2.8047,4.0837,8.4633,1590575896,S
77,2278454,2.4000,1.6415,7.4225,-103.3900,12.9500,6.2300,998.8207,2.4265,2.8843,9.0534,1590575896,S
77,2258012,1.8951,3.1992,9.1717,-43.3300,-3.0100,7.4200,998.8202,2.2146,2.5724,9.2005,1590575896,S
77,2256200,2.5005,5.2499,9.4995,-79.5200,-54.8800,27.8600,998.8199,2.5156,2.2338,9.2115,1590575896,S
78,2261501,3.1896,1.5745,8.5472,-19.6700,-39.6900,-1.7500,998.8189,2.8968,2.0863,9.1338,1590575897,S
78,2260316,3.9314,1.2156,8.1452,-63.6300,-47.6700,8.7500,998.8170,3.1762,1.5052,9.1551,1590575897,S
78,2259625,5.2905,-0.1914,7.1330,110.0400,-43.6100,1.6100,998.8150,4.4501,2.1430,8.4720,1590575897,S
78,2260122,6.8124,1.2084,7.5709,50.6800,-28.9800,-17.3600,998.8134,5.2127,2.4238,7.9450,1590575897,S
78,2260721,7.1258,2.3282,7.3005,45.2200,-33.3900,-12.0400,998.8123,5.8765,2.7513,7.3531,1590575897,S
78,2256227,7.1330,3.2686,6.6808,26.2500,-4.6200,-5.1100,998.8119,6.1716,3.0096,7.0017,1590575897,S
78,2250067,7.9226,3.9266,5.6279,25.9700,0.2800,-1.8200,998.8113,6.5205,3.3190,6.5298,1590575897,S
77,2247197,7.7145,5.9007,5.2834,-25.0600,10.5700,12.3200,998.8116,6.5427,3.3422,6.4956,1590575897,S
78,2255558,6.9679,1.3998,4.8646,42.9100,46.0600,14.4900,998.8120,6.5943,3.3014,6.4642,1590575897,S
78,2266447,4.5368,3.6132,8.1188,32.8300,32.9000,1.5400,998.8123,6.0440,3.5779,6.8439,1590575897,S
77,2278526,6.0203,4.8718,5.5250,54.2500,47.3200,3.7800,998.8134,5.9166,4.1321,6.6401,1590575898,S
78,2289864,3.4313,4.0343,9.2842,-15.0500,36.2600,26.1800,998.8149,5.2257,3.9410,7.3028,1590575898,S
77,2296573,4.6875,-1.3783,8.2911,-153.4400,-35.7000,-3.9900,998.8157,4.9789,1.9532,8.2199,1590575898,S
77,2292748,6.3075,4.7258,7.6953,-46.3400,-58.4500,-18.9000,998.8165,5.1931,2.0138,8.0713,1590575898,S
77,2289547,7.4536,-0.1771,4.1228,-139.0200,-44.3100,8.8900,998.8168,9.3234,1.7561,2.4819,1590575898,S
78,2287372,6.3051,2.3354,6.7454,51.5200,46.2000,0.9800,998.8168,5.1195,1.3939,8.2473,1590575898,S
77,2285684,3.8501,-1.7731,8.4634,-32.8300,41.3000,4.6900,998.8168,8.5257,0.8986,4.7618,1590575898,S
78,2283143,5.7667,-1.1031,8.1978,-27.7200,-13.0200,-8.6100,998.8167,8.9063,0.5060,4.0733,1590575898,S
78,2281948,5.9581,2.0554,8.3653,-3.9200,-0.7000,1.4700,998.8163,8.7298,0.7620,4.4023,1590575898,S
78,2281053,5.4365,0.0957,7.2933,-4.4800,3.4300,13.0200,998.8157,8.7769,0.5385,4.3413,1590575898,S
78,2279360,6.3386,0.0239,7.5302,-17.5000,-14.1400,6.1600,998.8147,9.0549,0.3682,3.7475,1590575899,S
78,2273614,5.8385,-0.3900,8.3533,-18.3400,-3.0800,6.4400,998.8131,8.8442,0.1060,4.2355,1590575899,S
77,2268390,5.5418,-0.5623,7.6834,7.3500,4.2700,6.4400,998.8118,8.3133,-0.0846,5.2013,1590575899,S
78,2264938,5.8648,0.3398,8.3510,5.4600,0.6300,1.8200,998.8105,8.7134,0.0252,4.4995,1590575899,S
78,2262527,6.4439,0.2441,7.7001,2.9400,-4.4800,6.7900,998.8093,8.9539,0.0403,3.9996,1590575899,S
78,2261413,6.1208,-0.1866,7.9394,-0.9800,-5.5300,-1.3300,998.8090,8.6170,-0.0057,4.6816,1590575899,S
77,2260281,6.0036,0.0215,7.7599,-9.3100,-6.6500,6.2300,998.8085,7.9014,-0.0818,5.8079,1590575899,S
77,2259621,6.5611,-0.7059,8.1476,-6.3700,-6.7200,0.2100,998.8080,7.1802,-0.2392,6.6752,1590575899,S
77,2257966,6.2118,-0.4499,7.2766,-3.0800,15.6100,-3.2200,998.8079,7.0514,-0.2846,6.8094,1590575899,S
77,2252037,6.2501,-0.3757,8.1141,-3.6400,0.6300,-1.8200,998.8082,6.9840,-0.3108,6.8773,1590575899,S
77,2247968,5.9198,-0.4020,7.8939,2.7300,7.0000,0.1400,998.8092,6.6050,-0.3206,7.2417,1590575900,S
77,2246539,6.1950,-0.5958,7.6116,-6.4400,-5.6700,2.1000,998.8098,6.5975,-0.4189,7.2434,1590575900,S
77,2245942,6.2477,-1.3017,7.2287,-9.3100,-8.1900,-2.7300,998.8102,6.7238,-0.6337,7.1105,1590575900,S
77,2245719,5.8600,-0.2465,8.0949,3.9900,2.8000,1.5400,998.8105,6.4790,-0.5443,7.3414,1590575900,S
77,2246080,6.1352,-0.9069,7.4417,-0.2100,-8.2600,-3.0100,998.8112,6.5129,-0.6075,7.3064,1590575900,S
77,2246771,5.8505,-0.2871,7.8844,2.2400,-36.3300,0.8400,998.8113,6.6030,-0.5374,7.2306,1590575900,S
77,2245055,6.0538,-1.4309,7.2503,-27.7200,-38.9200,-6.5100,998.8103,7.2204,-0.8233,6.5847,1590575900,S
77,2240564,6.3936,-0.6556,6.9655,7.9100,-27.8600,-14.2100,998.8096,7.4295,-0.6807,6.3647,1590575900,S
76,2241212,7.0110,0.1436,7.1402,18.5500,-62.7200,21.9100,998.8098,7.0147,-0.5434,6.8315,1590575900,S
77,2242793,8.3055,-0.1795,4.6421,11.7600,-67.4100,60.9700,998.8105,6.8032,-0.7084,7.0274,1590575900,S
76,2244583,8.1643,-0.8112,3.2686,6.4400,-52.5000,104.0900,998.8111,7.2084,-1.3241,6.5158,1590575901,S
76,2246801,11.1386,-6.1376,2.1081,21.5600,14.7700,112.9100,998.8119,7.1468,-2.3407,6.2940,1590575901,S
77,2250387,6.3099,-4.7043,4.9173,72.8000,47.7400,83.0200,998.8121,6.3984,-2.8153,6.8779,1590575901,S
77,2254028,6.0491,-5.8433,5.4963,68.9500,97.3000,23.5200,998.8129,5.5519,-2.9432,7.5289,1590575901,S
77,2249136,3.8859,-4.5153,7.7288,-34.1600,101.4300,8.8900,998.8135,4.6499,-3.3604,7.9534,1590575901,S
77,2250442,2.9384,-3.0221,10.1527,-2.6600,47.8100,27.0900,998.8147,3.9689,-3.3187,8.3309,1590575901,S
77,2251227,2.7494,-7.3555,6.1854,-70.2800,20.4400,17.8500,998.8159,3.7925,-4.6103,7.7803,1590575901,S
77,2251126,2.7494,-5.7619,6.2620,-38.9900,46.2700,9.8000,998.8171,3.3773,-5.1198,7.6519,1590575901,S
77,2252475,2.2995,-7.1186,8.1715,-35.4900,41.3000,16.3100,998.8191,2.9051,-5.4281,7.6332,1590575901,S
77,2254645,1.0672,-6.2309,6.9966,-67.2700,25.3400,25.2700,998.8218,2.3428,-6.0459,7.3573,1590575901,S
77,2254632,0.4068,-8.0183,5.9270,-28.4200,2.3100,26.8100,998.8242,1.8515,-6.6121,7.0016,1590575902,S
77,2253398,0.4331,-7.4536,5.7236,-3.5000,-7.6300,10.9900,998.8264,1.5665,-6.9060,6.7841,1590575902,S
77,2250960,0.1388,-7.8796,5.7547,-3.3600,-10.1500,-10.0100,998.8285,1.3827,-7.0478,6.6774,1590575902,S
77,2243658,1.3017,-8.0375,5.8552,-3.0100,-3.5000,-10.2900,998.8310,1.4385,-7.1814,6.5214,1590575902,S
77,2232476,0.8136,-8.0901,5.6518,-1.1200,7.7700,-9.8700,998.8333,1.3321,-7.1838,6.5413,1590575902,S
77,2220338,1.0217,-8.1739,5.5394,-1.4700,9.9400,-7.2100,998.8356,1.2676,-7.2182,6.5162,1590575902,S
77,2208615,0.9165,-8.3438,5.5537,1.9600,3.2200,-2.8000,998.8384,1.2016,-7.3198,6.4146,1590575902,S
77,2201462,1.0169,-8.0853,5.5322,5.3900,2.8000,-4.1300,998.8412,1.1803,-7.3707,6.3601,1590575902,S
77,2197091,0.9093,-7.9011,5.6686,6.3000,2.2400,-3.9200,998.8442,1.1418,-7.3789,6.3576,1590575902,S
77,2195606,1.2419,-7.9848,5.7428,-3.5000,-0.4200,2.0300,998.8472,1.1540,-7.5386,6.1651,1590575902,S
77,2191692,0.9069,-8.0710,5.6877,1.5400,-0.7700,-1.3300,998.8506,1.1156,-7.6049,6.0903,1590575903,S
77,2186279,1.1844,-7.8867,5.7978,2.4500,-0.5600,-1.3300,998.8526,1.1394,-7.6354,6.0475,1590575903,S
77,2182468,0.9691,-7.8485,5.7547,0.7000,0.1400,-0.4900,998.8538,1.1090,-7.6693,6.0102,1590575903,S
77,2180214,1.0217,-7.8939,5.7356,-0.2100,0.7700,0.2100,998.8550,1.0878,-7.7101,5.9616,1590575903,S
77,2178397,0.9667,-7.9442,5.7691,-0.2800,0.5600,-0.2800,998.8560,1.0622,-7.7401,5.9273,1590575903,S
76,2177284,1.0409,-7.9250,5.7188,1.8900,-0.2800,-0.7000,998.8553,1.0635,-7.7588,5.9026,1590575903,S
77,2176626,0.9882,-7.8891,5.7356,-0.0700,0.5600,-0.2800,998.8550,1.0483,-7.7780,5.8800,1590575903,S
77,2176290,1.0241,-7.8939,5.7595,0.5600,1.1200,0.0700,998.8549,1.0386,-7.7874,5.8692,1590575903,S
77,2173901,1.0337,-7.8604,5.8265,0.6300,2.1000,0.4900,998.8548,1.0263,-7.7826,5.8778,1590575903,S
77,2169345,1.0193,-8.0758,5.6351,-0.9100,1.6100,0.4200,998.8541,1.0146,-7.8243,5.8242,1590575903,S
76,2165286,0.9571,-7.9059,5.7787,2.1000,1.4000,-0.1400,998.8535,0.9987,-7.8112,5.8445,1590575904,S
76,2162471,0.9236,-7.9394,5.7188,0.7000,0.3500,-0.1400,998.8532,0.9831,-7.8248,5.8290,1590575904,S
76,2161078,0.9930,-7.9729,5.7667,2.1000,0.2800,-0.1400,998.8530,0.9838,-7.8261,5.8270,1590575904,S
76,2160427,0.9715,-7.9729,5.7835,2.1000,0.2100,-1.1200,998.8530,0.9861,-7.8156,5.8408,1590575904,S
76,2160460,0.9523,-7.8341,5.7858,1.7500,0.2800,-0.7700,998.8528,0.9838,-7.8023,5.8589,1590575904,S
76,2160382,0.9308,-7.9107,5.7906,0.6300,0.9800,-0.6300,998.8521,0.9727,-7.7989,5.8652,1590575904,S
76,2159061,0.9212,-7.9131,5.7547,0.1400,1.5400,-0.3500,998.8516,0.9584,-7.8010,5.8648,1590575904,S
76,2155849,0.8806,-7.9155,5.7452,0.1400,1.1900,-0.7700,998.8511,0.9428,-7.8019,5.8662,1590575904,S
76,2154253,0.9332,-7.9633,5.7739,0.3500,0.7700,-0.7700,998.8507,0.9413,-7.8054,5.8618,1590575904,S
76,2154402,0.9308,-7.9609,5.7787,0.6300,0.5600,-0.5600,998.8504,0.9393,-7.8101,5.8557,1590575904,S
76,2154743,0.8853,-7.9083,5.7332,0.4900,0.2800,-0.4900,998.8500,0.9306,-7.8186,5.8458,1590575905,S
76,2155364,0.8949,-7.9107,5.7882,0.7000,0.4200,-0.6300,998.8503,0.9252,-7.8164,5.8497,1590575905,S
76,2156547,1.0409,-7.9729,5.7930,-2.1700,-0.7000,0.9800,998.8509,0.9424,-7.8609,5.7869,1590575905,S
76,2157405,0.8183,-7.9896,5.7069,0.7700,0.7000,-0.4200,998.8524,0.9170,-7.8638,5.7871,1590575905,S
76,2157611,0.8973,-7.9035,5.7093,1.1900,0.3500,-0.5600,998.8539,0.9158,-7.8584,5.7946,1590575905,S
76,2155642,0.8997,-7.9370,5.7069,0.3500,-0.0700,-0.3500,998.8559,0.9149,-7.8671,5.7829,1590575905,S
75,2154617,0.9188,-8.0542,5.7117,-0.2100,-0.4200,-0.3500,998.8574,0.9173,-7.8874,5.7548,1590575905,S
76,2154496,0.9523,-7.9992,5.8026,0.2100,-0.4200,-0.3500,998.8585,0.9257,-7.8885,5.7520,1590575905,S
75,2154604,0.8949,-7.9968,5.7188,-0.1400,-0.1400,0.4200,998.8585,0.9163,-7.9062,5.7291,1590575905,S
76,2154472,0.8064,-8.0279,5.6399,0.6300,-0.1400,-0.7000,998.8581,0.8987,-7.9135,5.7218,1590575905,S
75,2154929,0.8758,-7.9322,5.7260,2.2400,-0.2100,-1.2600,998.8580,0.9029,-7.8896,5.7540,1590575906,S
75,2156215,0.9284,-7.9226,5.7380,1.5400,0.0700,-1.3300,998.8586,0.9158,-7.8688,5.7804,1590575906,S
75,2156567,0.9404,-7.9250,5.7452,0.8400,0.2800,-0.7700,998.8589,0.9241,-7.8602,5.7908,1590575906,S
75,2154876,0.9141,-7.9274,5.7667,0.9800,1.0500,-0.8400,998.8582,0.9228,-7.8438,5.8132,1590575906,S
75,2154037,0.9835,-7.9537,5.7141,1.1200,0.4200,-0.6300,998.8571,0.9368,-7.8441,5.8106,1590575906,S
75,2154707,0.8734,-7.9537,5.6901,0.6300,0.2800,-0.5600,998.8560,0.9265,-7.8517,5.8020,1590575906,S
75,2155132,0.9500,-7.9370,5.7069,1.0500,0.2800,-0.7700,998.8558,0.9348,-7.8500,5.8030,1590575906,S
75,2155901,0.9523,-7.9585,5.7571,0.8400,0.3500,-0.4900,998.8560,0.9391,-7.8490,5.8036,1590575906,S
75,2156760,0.9595,-7.9513,5.7595,0.7700,0.2100,-0.3500,998.8560,0.9436,-7.8505,5.8008,1590575906,S
75,2157629,0.9380,-7.9394,5.7045,0.7700,0.3500,-0.4200,998.8558,0.9437,-7.8544,5.7956,1590575906,S
75,2157356,0.9188,-7.9801,5.7356,0.8400,0.2100,-0.2800,998.8553,0.9387,-7.8598,5.7890,1590575907,S
75,2155091,0.9571,-7.9992,5.7643,0.4900,0.4200,-0.4900,998.8552,0.9421,-7.8603,5.7878,1590575907,S
75,2153220,0.9141,-7.9633,5.7380,0.7700,0.1400,-0.7000,998.8551,0.9395,-7.8593,5.7895,1590575907,S
74,2153297,0.9117,-7.9801,5.6901,0.8400,0.4200,-0.5600,998.8554,0.9353,-7.8633,5.7848,1590575907,S
75,2153515,0.9356,-7.9250,5.7141,0.7000,0.3500,-0.4900,998.8553,0.9371,-7.8623,5.7859,1590575907,S
74,2154025,0.9595,-7.9657,5.7428,0.8400,0.2800,-0.4200,998.8553,0.9422,-7.8620,5.7855,1590575907,S
74,2154664,0.9021,-7.9466,5.7476,-0.0700,-0.0700,0.1400,998.8557,0.9328,-7.8745,5.7700,1590575907,S
75,2155427,0.9165,-7.9226,5.7093,-0.2800,-0.1400,0.0700,998.8557,0.9296,-7.8872,5.7531,1590575907,S
74,2155351,0.9500,-7.9753,5.7691,-0.0700,-0.1400,0.1400,998.8557,0.9317,-7.8947,5.7424,1590575907,S
74,2152980,0.9523,-8.0040,5.7404,-0.3500,-0.1400,0.1400,998.8556,0.9337,-7.9068,5.7255,1590575907,S
74,2151014,0.9356,-7.9705,5.7045,-0.2100,-0.2800,0.1400,998.8553,0.9334,-7.9181,5.7099,1590575908,S
74,2150497,0.8495,-7.9585,5.7476,-0.1400,-0.0700,0.1400,998.8550,0.9152,-7.9215,5.7081,1590575908,S
74,2150197,0.9691,-7.8987,5.7500,-0.1400,0.0700,-0.2100,998.8551,0.9267,-7.9129,5.7182,1590575908,S
74,2150081,0.9308,-7.9729,5.7212,-0.0700,0.0700,0.0700,998.8552,0.9259,-7.9173,5.7122,1590575908,S
74,2150148,0.9308,-7.9274,5.7069,0.1400,-0.2100,0.0700,998.8545,0.9271,-7.9201,5.7081,1590575908,S
74,2150482,0.9069,-7.8820,5.7069,0.1400,-0.2100,-0.1400,998.8543,0.9254,-7.9172,5.7125,1590575908,S
74,2149840,0.9500,-7.9466,5.7236,0.0700,0.2100,0.2800,998.8549,0.9272,-7.9190,5.7096,1590575908,S
74,2147070,0.9619,-7.9250,5.7188,-0.2100,0.0700,0.0700,998.8550,0.9331,-7.9194,5.7081,1590575908,S
74,2144929,0.9284,-7.9346,5.7260,-0.2100,-0.2100,0.0700,998.8548,0.9320,-7.9224,5.7042,1590575908,S
74,2144492,0.8949,-7.9968,5.6901,0.1400,-0.1400,-0.0700,998.8541,0.9247,-7.9289,5.6964,1590575908,S
74,2144286,0.9428,-7.9896,5.7619,-0.1400,0.0700,0.0700,998.8539,0.9259,-7.9277,5.6978,1590575909,S
74,2144058,0.9691,-7.9298,5.7356,-0.0700,0.0700,0.0700,998.8538,0.9333,-7.9242,5.7015,1590575909,S
74,2144257,0.8758,-7.9083,5.7571,-0.0700,-0.2100,-0.0700,998.8538,0.9227,-7.9200,5.7089,1590575909,S
74,2144530,0.8925,-7.9729,5.7595,0.1400,-0.2100,-0.0700,998.8541,0.9166,-7.9195,5.7106,1590575909,S
74,2144374,0.9715,-7.9609,5.6758,-0.1400,0.2800,-0.0700,998.8539,0.9266,-7.9227,5.7046,1590575909,S
74,2141726,0.9332,-7.9705,5.7595,-0.1400,0.0700,-0.0700,998.8541,0.9267,-7.9202,5.7081,1590575909,S
74,2139284,0.8997,-7.8652,5.7117,0.0700,0.0700,-0.4900,998.8543,0.9249,-7.9099,5.7226,1590575909,S
74,2138837,0.9260,-7.8987,5.7476,0.6300,0.2100,-0.6300,998.8555,0.9283,-7.8945,5.7432,1590575909,S
74,2138723,0.9715,-7.9633,5.7691,0.5600,0.2100,-0.5600,998.8569,0.9383,-7.8854,5.7542,1590575909,S
74,2138492,0.9835,-7.9561,5.7595,0.5600,0.1400,0.1400,998.8580,0.9448,-7.8867,5.7513,1590575909,S
74,2138126,0.8782,-7.9107,5.7763,-0.1400,0.3500,0.4200,998.8595,0.9271,-7.8898,5.7499,1590575910,S
74,2137890,0.8853,-7.8963,5.7906,-0.5600,0.0700,0.3500,998.8604,0.9158,-7.8936,5.7466,1590575910,S
74,2137778,0.9452,-7.9801,5.6925,0.0700,0.0700,0.1400,998.8605,0.9198,-7.9051,5.7301,1590575910,S
74,2135788,0.9500,-7.9131,5.8026,0.2800,-0.1400,-0.0700,998.8600,0.9258,-7.8971,5.7401,1590575910,S
74,2133107,0.9476,-7.8915,5.7500,0.2800,0.0700,0.0700,998.8604,0.9295,-7.8942,5.7435,1590575910,S
74,2131604,0.8734,-7.9011,5.6830,-0.3500,0.0700,0.0700,998.8604,0.9181,-7.9033,5.7328,1590575910,S
74,2131331,0.9691,-7.9920,5.7476,-0.1400,-0.1400,-0.0700,998.8611,0.9276,-7.9084,5.7242,1590575910,S
74,2131196,0.9236,-7.9418,5.7619,-0.3500,-0.1400,0.0700,998.8616,0.9258,-7.9110,5.7209,1590575910,S
74,2131227,0.8949,-7.9561,5.7476,-0.1400,0.0700,0.0700,998.8625,0.9180,-7.9132,5.7192,1590575910,S
74,2131542,0.9021,-7.8963,5.7715,-0.0700,0.0700,-0.1400,998.8639,0.9152,-7.9055,5.7302,1590575910,S
74,2132188,0.8925,-7.9705,5.7165,-0.4900,0.0700,-0.1400,998.8645,0.9103,-7.9121,5.7219,1590575911,S
74,2130680,0.9188,-7.9442,5.7595,-0.0700,0.0700,0.1400,998.8644,0.9100,-7.9121,5.7219,1590575911,S
74,2128324,0.9021,-7.9274,5.7428,0.0700,0.0700,0.0700,998.8644,0.9073,-7.9112,5.7236,1590575911,S
74,2127400,0.9811,-7.9442,5.7787,-0.2800,0.1400,-0.0700,998.8652,0.9206,-7.9068,5.7276,1590575911,S
74,2127150,0.8614,-7.9513,5.7117,-0.2800,-0.1400,0.0700,998.8661,0.9084,-7.9156,5.7174,1590575911,S
74,2127190,0.9212,-7.9561,5.7500,-0.2100,-0.0700,0.1400,998.8672,0.9093,-7.9185,5.7133,1590575911,S
74,2127515,0.9021,-7.9920,5.6925,-0.1400,0.0700,0.1400,998.8676,0.9058,-7.9274,5.7014,1590575911,S
74,2127948,0.8925,-7.9585,5.7691,-0.0700,0.1400,0.1400,998.8683,0.9007,-7.9244,5.7065,1590575911,S
74,2128795,0.9165,-7.9298,5.7428,-0.3500,0.2800,0.2800,998.8690,0.9005,-7.9240,5.7070,1590575911,S
74,2127582,0.9284,-7.9537,5.6973,-0.8400,0.0700,0.7000,998.8701,0.9009,-7.9387,5.6865,1590575911,S
74,2125224,0.9117,-7.9609,5.7188,-0.7000,0.0700,0.8400,998.8714,0.8967,-7.9500,5.6714,1590575912,S
74,2123760,0.8973,-7.9107,5.7356,-0.7000,-0.2800,0.5600,998.8728,0.8941,-7.9537,5.6665,1590575912,S
74,2123663,0.8064,-8.0136,5.6542,-0.0700,-0.1400,0.0700,998.8737,0.8760,-7.9625,5.6569,1590575912,S
74,2123864,0.8542,-7.9394,5.6997,-0.0700,-0.1400,-0.0700,998.8740,0.8725,-7.9580,5.6639,1590575912,S
74,2124422,0.8088,-7.9681,5.7117,0.4900,-0.2100,-0.4200,998.8739,0.8627,-7.9493,5.6775,1590575912,S
74,2125296,0.8853,-7.9848,5.7452,0.2100,-0.2800,-0.7000,998.8732,0.8714,-7.9378,5.6923,1590575912,S
74,2126432,0.8925,-7.9466,5.7093,0.2100,0.0700,-0.5600,998.8727,0.8785,-7.9281,5.7047,1590575912,S
74,2125370,0.9045,-8.0064,5.7763,1.0500,-0.3500,-0.9800,998.8718,0.8893,-7.9120,5.7253,1590575912,S
74,2123711,0.9356,-7.9896,5.7212,0.3500,0.0700,-0.7000,998.8710,0.9015,-7.9066,5.7309,1590575912,S
74,2122655,0.9404,-7.9537,5.7428,-0.1400,0.0700,-0.2100,998.8705,0.9093,-7.9060,5.7304,1590575912,S
74,2122274,0.8949,-7.9825,5.7165,-0.1400,-0.0700,-0.2800,998.8702,0.9074,-7.9109,5.7241,1590575913,S
74,2122168,0.8997,-7.9705,5.6806,0.2800,-0.1400,-0.3500,998.8704,0.9082,-7.9148,5.7186,1590575913,S
74,2121988,0.8901,-8.0040,5.7093,-0.0700,0.2800,-0.1400,998.8707,0.9033,-7.9185,5.7141,1590575913,S
73,2122082,0.9021,-8.0016,5.7332,-0.2100,0.0700,-0.2100,998.8715,0.9026,-7.9206,5.7114,1590575913,S
74,2122224,0.9523,-7.9513,5.7093,0.1400,0.2800,-0.2800,998.8719,0.9127,-7.9161,5.7160,1590575913,S
74,2119883,0.9332,-7.9226,5.7284,0.2800,-0.1400,-0.1400,998.8719,0.9180,-7.9131,5.7193,1590575913,S
74,2116928,0.8782,-7.9705,5.7308,-0.0700,-0.1400,-0.1400,998.8718,0.9105,-7.9164,5.7160,1590575913,S
73,2115375,0.8160,-7.9729,5.7188,0.0700,-0.1400,-0.3500,998.8716,0.8936,-7.9178,5.7167,1590575913,S
74,2115241,0.9380,-8.0064,5.7188,0.1400,-0.1400,-0.3500,998.8724,0.9037,-7.9195,5.7127,1590575913,S
73,2114967,0.8590,-7.9394,5.7787,0.2800,-0.1400,-0.0700,998.8739,0.8949,-7.9141,5.7215,1590575913,S
73,2114963,0.8830,-7.9609,5.6949,0.1400,-0.0700,-0.3500,998.8752,0.8946,-7.9157,5.7194,1590575914,S
73,2115170,0.8734,-8.0279,5.7619,0.2100,0.0700,-0.3500,998.8763,0.8903,-7.9139,5.7226,1590575914,S
74,2115144,0.9021,-7.9657,5.7236,0.2100,0.2100,-0.1400,998.8766,0.8920,-7.9128,5.7238,1590575914,S
73,2112909,0.9212,-7.9394,5.7404,0.2100,0.2100,-0.4200,998.8768,0.8991,-7.9050,5.7336,1590575914,S
73,2110412,0.8806,-7.9370,5.6782,0.2100,-0.0700,-0.1400,998.8765,0.8967,-7.9104,5.7264,1590575914,S
73,2109448,0.8590,-7.9848,5.7428,-0.0700,-0.0700,-0.2800,998.8764,0.8900,-7.9121,5.7251,1590575914,S
74,2109940,0.8901,-7.8796,5.7117,0.3500,-0.1400,-0.1400,998.8763,0.8921,-7.9087,5.7294,1590575914,S
73,2110947,0.9069,-7.9944,5.7332,-0.0700,-0.2800,-0.0700,998.8765,0.8951,-7.9159,5.7190,1590575914,S
74,2112371,0.8925,-7.9848,5.7476,-0.0700,-0.2100,-0.2100,998.8758,0.8953,-7.9177,5.7166,1590575914,S
74,2113891,0.9236,-7.9585,5.7212,-0.1400,-0.0700,-0.2800,998.8749,0.9022,-7.9177,5.7154,1590575914,S
74,2115215,0.8662,-7.9705,5.7619,0.2100,0.1400,-0.2100,998.8745,0.8947,-7.9128,5.7234,1590575915,S
74,2114173,0.9428,-7.8891,5.7236,-0.3500,0.0700,-0.2800,998.8746,0.9059,-7.9085,5.7276,1590575915,S
74,2112863,0.8590,-7.9490,5.7021,0.0700,-0.1400,-0.4200,998.8747,0.8994,-7.9101,5.7264,1590575915,S
74,2113286,0.8375,-7.9442,5.7117,0.4900,-0.1400,-0.7700,998.8748,0.8921,-7.9040,5.7360,1590575915,S
74,2114151,0.9021,-7.9561,5.7547,0.9100,-0.1400,-0.7700,998.8756,0.8986,-7.8929,5.7502,1590575915,S
74,2114243,0.9021,-7.9131,5.7691,-0.8400,0.9800,0.4200,998.8764,0.8924,-7.8940,5.7497,1590575915,S
74,2114013,0.9882,-8.1523,5.7739,-1.6800,-1.0500,-0.6300,998.8779,0.9143,-7.9187,5.7122,1590575915,S
74,2113764,0.9882,-8.3510,5.6303,1.7500,-0.9800,-1.6100,998.8788,0.9373,-7.9349,5.6858,1590575915,S
74,2112513,1.0863,-8.1571,6.4582,47.4600,-1.6800,-10.0800,998.8793,1.0305,-7.5136,6.2172,1590575915,S
74,2112202,0.8423,-7.2694,8.8415,65.0300,-67.8300,-22.6100,998.8798,1.4775,-7.2061,6.4853,1590575915,S
74,2123525,3.3428,-6.6377,7.7360,23.4500,-141.2600,-16.1000,998.8806,2.5449,-7.1140,6.2518,1590575916,S
74,2131903,5.5825,-7.2574,4.5176,-102.3400,-113.0500,-38.0100,998.8811,3.7106,-7.6034,4.9588,1590575916,S
74,2144465,6.8076,-9.0760,1.6223,-8.6800,-14.0700,-101.6400,998.8813,4.7800,-7.1999,4.6350,1590575916,S
74,2153401,6.4295,-6.2166,2.7924,88.2000,53.4800,-102.9000,998.8802,5.6329,-6.1542,5.1543,1590575916,S
74,2177124,6.7717,-1.9765,4.6947,153.0900,78.1200,-90.8600,998.8796,5.8812,-4.2902,6.5709,1590575916,S
74,2202331,4.9125,1.9908,8.2983,143.4300,53.2700,-41.9300,998.8790,5.3117,-1.9704,8.0046,1590575916,S
74,2217324,3.4552,2.1033,8.4347,59.9900,14.9100,-19.6700,998.8780,4.3906,-0.6122,8.7475,1590575916,S
74,2226761,4.0678,3.8166,7.9825,50.8900,25.6900,-52.9900,998.8766,5.8287,0.6932,7.8560,1590575916,S
74,2233022,4.2353,2.5053,8.4873,33.7400,-3.7800,-56.4200,998.8743,5.0211,1.4677,8.2949,1590575916,S
75,2237884,6.1280,7.0205,6.2285,38.2200,16.5200,-16.8700,998.8717,5.2481,2.2967,7.9594,1590575916,S
75,2243476,4.2736,5.0106,5.6183,63.7000,69.5100,20.8600,998.8680,5.0992,2.9593,7.8365,1590575917,S
75,2265016,5.6495,4.2018,8.4897,-39.2700,5.6000,56.0700,998.8640,5.2477,2.5518,7.8816,1590575917,S
75,2294336,3.8644,5.2546,6.9153,20.3000,16.4500,9.4500,998.8596,4.9643,3.1551,7.8468,1590575917,S
75,2311768,2.4263,6.7573,8.4467,38.3600,30.5900,10.9900,998.8558,4.5475,3.6529,7.8833,1590575917,S
75,2323767,1.5912,4.5272,7.9561,-26.8800,-7.8400,10.6400,998.8522,3.9107,3.6963,8.1984,1590575917,S
75,2333625,4.6995,6.6018,6.9344,-71.3300,-46.6900,-40.9500,998.8484,4.0551,3.8932,8.0355,1590575917,S
75,2338852,2.7589,1.8329,8.2409,3.3600,-35.7000,-59.9200,998.8448,3.9611,3.8454,8.1051,1590575917,S
75,2344041,4.2162,3.8309,7.5900,31.9200,24.2200,-20.8600,998.8412,3.8672,4.1147,8.0177,1590575917,S
75,2344638,3.8166,4.8431,3.7496,3.5700,7.5600,-25.3400,998.8383,3.9480,4.5805,7.7202,1590575917,S
75,2342678,1.6247,4.2257,11.6913,38.6400,64.9600,27.7900,998.8358,3.3255,4.4857,8.0616,1590575918,S
75,2349309,3.6826,4.6229,10.6863,5.1800,14.8400,59.9900,998.8336,3.4320,4.1807,8.1801,1590575918,S
75,2359354,2.8977,5.5274,6.9272,6.5800,4.0600,22.3300,998.8303,3.4522,4.4322,8.0379,1590575918,S
75,2365717,1.7611,4.0175,8.6118,-57.2600,-6.0200,26.3200,998.8272,3.0952,3.9002,8.4486,1590575918,S
75,2371245,3.0532,4.5511,9.1358,-51.3100,-38.2900,-47.1800,998.8240,3.0533,3.8648,8.4800,1590575918,S
75,2371628,3.0437,3.9960,9.3105,-5.8800,-51.6600,-52.0100,998.8212,3.2078,4.1954,8.2631,1590575918,S
75,2370705,4.7043,5.7595,6.6257,-150.5700,-45.1500,71.1200,998.8180,3.7461,3.2478,8.4610,1590575918,S
75,2365893,4.7976,0.2632,4.5368,9.9400,-63.6300,55.4400,998.8156,4.7377,2.9390,8.0677,1590575918,S
75,2361028,4.7426,-2.7876,5.1876,-75.0400,-13.1600,123.2000,998.8142,4.6240,1.0906,8.5790,1590575918,S
75,2360738,6.5755,-4.1970,5.4915,26.1100,76.6500,52.8500,998.8130,8.9116,0.4590,4.0674,1590575918,S
74,2347223,3.3691,-3.6084,8.2241,-114.6600,115.0800,22.1900,998.8135,6.2789,-1.3314,7.4144,1590575918,S
74,2340979,4.5823,-5.6183,10.2796,-143.2900,80.5000,36.0500,998.8139,5.2472,-2.7853,7.8025,1590575919,S
74,2335457,3.0221,-7.1856,10.5643,-96.4600,23.1700,29.3300,998.8147,4.6978,-3.8222,7.7131,1590575919,S
74,2329891,0.1460,-6.7358,7.1282,-30.6600,14.0700,34.3000,998.8160,3.5272,-4.6012,7.9093,1590575919,S
74,2321995,-0.2130,-8.6524,5.8193,-27.6500,-4.3400,18.3400,998.8171,2.8061,-5.3040,7.7565,1590575919,S
74,2313409,0.1340,-7.1450,6.0682,-0.9800,-13.7900,-7.5600,998.8184,2.4010,-5.5476,7.7220,1590575919,S
74,2299151,1.4477,-8.8511,6.0132,-8.2600,-10.0100,-16.0300,998.8207,2.4794,-5.8150,7.4973,1590575919,S
74,2284286,0.8734,-7.3101,5.6183,-1.0500,9.8000,-5.3200,998.8237,2.1570,-5.9847,7.4633,1590575919,S
74,2272538,1.2275,-8.2505,5.4724,-2.0300,6.4400,-3.0800,998.8268,1.9969,-6.2678,7.2730,1590575919,S
74,2264472,1.0289,-8.1571,5.6064,-1.3300,3.2200,0.0700,998.8296,1.8161,-6.5040,7.1113,1590575919,S
74,2256388,1.0169,-8.0662,5.4915,-0.4200,2.2400,-1.1900,998.8323,1.6776,-6.7167,6.9456,1590575919,S
74,2245468,0.9882,-8.0830,5.6495,0.7700,0.2100,-0.9800,998.8358,1.5601,-6.8966,6.7951,1590575920,S
75,2235002,0.9452,-8.0160,5.6518,0.5600,-0.2800,-0.0700,998.8398,1.4516,-7.0606,6.6491,1590575920,S
75,2227728,0.9882,-7.9442,5.6088,0.4200,-0.2800,-0.3500,998.8431,1.3732,-7.2096,6.5044,1590575920,S
75,2221664,0.9404,-8.0183,5.6255,0.3500,0.0700,-0.5600,998.8455,1.2961,-7.3344,6.3794,1590575920,S
75,2216594,0.9835,-8.0351,5.6686,0.9100,-0.3500,-0.9800,998.8480,1.2442,-7.4379,6.2690,1590575920,S
75,2212307,0.9858,-7.9155,5.7117,0.9800,0.0700,-0.6300,998.8503,1.1988,-7.5116,6.1894,1590575920,S
74,2208661,0.9667,-8.0207,5.6806,-0.0700,0.2800,-0.0700,998.8522,1.1529,-7.5927,6.0985,1590575920,S
74,2203774,0.9930,-7.9777,5.6518,0.4200,0.5600,-0.2800,998.8540,1.1217,-7.6539,6.0275,1590575920,S
74,2194775,0.9858,-8.0112,5.6877,-0.2800,0.7000,-0.2100,998.8555,1.0928,-7.7060,5.9660,1590575920,S
74,2186305,0.9212,-8.0255,5.6925,-0.2800,-0.2800,-0.5600,998.8575,1.0622,-7.7522,5.9115,1590575920,S
74,2181654,0.9691,-7.9753,5.6614,0.2100,-0.5600,-0.6300,998.8593,1.0496,-7.7891,5.8650,1590575921,S
74,2178299,0.9835,-8.0375,5.6590,0.2100,-0.5600,-0.4900,998.8603,1.0405,-7.8248,5.8189,1590575921,S
74,2175643,1.0409,-7.9202,5.6997,0.7000,-0.4200,-0.8400,998.8621,1.0474,-7.8341,5.8052,1590575921,S
74,2173740,0.9428,-7.9561,5.7021,0.9100,-0.3500,-0.9800,998.8639,1.0335,-7.8405,5.7990,1590575921,S
74,2172816,1.0241,-7.9394,5.6518,-0.2100,-0.1400,-0.7000,998.8655,1.0366,-7.8568,5.7764,1590575921,S
74,2171252,1.0409,-8.0423,5.7069,-0.2100,0.4200,-0.6300,998.8666,1.0375,-7.8681,5.7609,1590575921,S
74,2166096,1.0504,-7.9537,5.6997,0.6300,0.2800,-0.8400,998.8680,1.0436,-7.8659,5.7628,1590575921,S
74,2161953,0.9571,-7.9274,5.6830,0.2100,0.1400,-0.7000,998.8695,1.0303,-7.8691,5.7607,1590575921,S
74,2160536,0.9715,-7.9681,5.6686,-0.1400,0.7700,-1.4700,998.8704,1.0242,-7.8651,5.7673,1590575921,S
74,2160063,1.0744,-7.9825,5.7021,-0.3500,0.7000,-1.4000,998.8714,1.0387,-7.8616,5.7694,1590575921,S
74,2159974,1.0744,-7.9872,5.7093,-0.2800,0.9100,-0.6300,998.8730,1.0448,-7.8645,5.7644,1590575922,S
75,2160469,1.0959,-8.0255,5.6686,0.1400,0.3500,-0.5600,998.8740,1.0555,-7.8758,5.7470,1590575922,S
75,2161323,1.0528,-8.0207,5.6782,1.9600,0.0700,-1.1200,998.8754,1.0606,-7.8702,5.7537,1590575922,S
75,2160980,1.0528,-7.8915,5.6997,2.1700,0.3500,-0.8400,998.8757,1.0638,-7.8543,5.7748,1590575922,S
75,2157119,1.0768,-7.8748,5.7117,-0.0700,0.5600,0.3500,998.8759,1.0626,-7.8617,5.7650,1590575922,S
75,2153584,1.0098,-8.0016,5.7452,-0.6300,0.3500,0.5600,998.8761,1.0453,-7.8806,5.7423,1590575922,S
75,2152473,1.0361,-7.9226,5.6231,-0.1400,0.3500,0.2800,998.8762,1.0412,-7.8962,5.7215,1590575922,S
75,2152191,1.0576,-7.9609,5.7476,-0.2800,-0.0700,0.2800,998.8760,1.0415,-7.9029,5.7122,1590575922,S
75,2152381,1.0289,-8.0399,5.7260,-0.3500,0.2100,0.3500,998.8753,1.0335,-7.9153,5.6965,1590575922,S
75,2152695,0.9811,-7.9825,5.6542,0.2100,0.2100,-0.2100,998.8753,1.0231,-7.9199,5.6920,1590575922,S
75,2153492,0.9954,-7.9298,5.7643,0.1400,-0.2800,-0.1400,998.8766,1.0186,-7.9140,5.7010,1590575923,S
75,2152938,0.9595,-8.0207,5.6949,-0.7000,-0.2800,0.4900,998.8779,1.0030,-7.9336,5.6764,1590575923,S
75,2149503,0.9356,-7.9753,5.6638,-0.0700,-0.2800,-0.0700,998.8784,0.9906,-7.9403,5.6693,1590575923,S
75,2147335,0.9763,-7.9920,5.6853,-0.2100,-0.3500,-0.0700,998.8788,0.9884,-7.9454,5.6625,1590575923,S
76,2146877,0.9643,-7.9896,5.6806,-0.2100,-0.3500,0.2100,998.8795,0.9826,-7.9530,5.6529,1590575923,S
76,2146516,0.9356,-7.9777,5.6327,-0.0700,0.0700,0.0700,998.8794,0.9724,-7.9579,5.6477,1590575923,S
75,2146367,0.9667,-7.9848,5.7500,0.4200,-0.2100,-0.3500,998.8782,0.9727,-7.9459,5.6646,1590575923,S
75,2146966,0.9284,-8.0016,5.6136,0.6300,0.3500,-0.8400,998.8770,0.9678,-7.9400,5.6736,1590575923,S
76,2147876,1.0289,-8.0231,5.6830,0.0700,-0.1400,-0.2100,998.8757,0.9802,-7.9424,5.6682,1590575923,S
76,2146933,0.9715,-7.9920,5.6830,0.0700,-0.1400,-0.2100,998.8748,0.9793,-7.9429,5.6676,1590575923,S
76,2143878,0.9667,-7.9944,5.6806,0.3500,-0.0700,-0.2100,998.8748,0.9775,-7.9418,5.6695,1590575924,S
76,2142238,0.9619,-8.0136,5.6782,0.2100,-0.2100,-0.5600,998.8755,0.9775,-7.9404,5.6714,1590575924,S
76,2142316,0.9715,-8.0327,5.6590,0.3500,-0.0700,-0.1400,998.8762,0.9762,-7.9451,5.6651,1590575924,S
76,2142717,0.8997,-7.9322,5.6806,0.3500,0.0700,-0.1400,998.8765,0.9618,-7.9401,5.6746,1590575924,S
76,2143034,0.9547,-7.9848,5.6638,0.4200,0.0700,-0.9800,998.8775,0.9657,-7.9308,5.6869,1590575924,S
76,2143969,1.0337,-7.9346,5.7380,2.5200,-0.2800,-1.8200,998.8775,0.9914,-7.8941,5.7332,1590575924,S
76,2143668,0.9978,-8.0447,5.7476,7.1400,1.1900,-1.6800,998.8770,0.9979,-7.8377,5.8090,1590575924,S
76,2138890,0.8614,-7.9466,5.8792,7.6300,0.5600,-0.7000,998.8761,0.9726,-7.7868,5.8814,1590575924,S
76,2136415,0.5121,-7.1880,6.6377,14.6300,-6.8600,4.2000,998.8757,0.8881,-7.7221,5.9791,1590575924,S
76,2141647,-0.6006,-6.4606,9.1454,7.0000,-92.1200,24.0100,998.8753,0.8990,-8.3618,5.0440,1590575924,S
76,2154313,2.4574,-9.6359,5.5657,8.5400,-137.9700,-12.8800,998.8748,1.6956,-8.3249,4.8981,1590575925,S
76,2160930,3.3141,-7.5948,4.5942,73.3600,-112.4200,-33.1100,998.8735,2.8571,-7.7396,5.3015,1590575925,S
76,2163273,5.2020,-8.1141,3.7615,-78.3300,-100.5900,-51.1000,998.8719,3.9140,-7.9020,4.2906,1590575925,S
76,2166943,6.5013,-7.3819,1.6917,-62.8600,-55.6500,-101.3600,998.8710,5.2233,-7.6049,3.3246,1590575925,S
76,2170162,7.7025,-4.9890,1.4859,-38.2200,-10.9900,-117.3200,998.8702,6.4918,-6.7869,2.8220,1590575925,S
76,2170781,8.5950,-2.9097,1.7468,-53.3400,9.8700,-96.2500,998.8701,7.4454,-5.8398,2.5753,1590575925,S
76,2173239,9.5665,-3.3045,1.6869,-49.2800,31.5700,-79.1000,998.8708,7.9269,-5.2331,2.4393,1590575925,S
77,2178173,8.6812,-0.6150,2.7589,6.1600,30.8000,-76.3000,998.8707,8.7024,-3.4896,2.8744,1590575925,S
77,2183294,9.0640,0.4187,2.8546,2.5200,15.4000,-52.5000,998.8709,9.1387,-2.0599,2.9003,1590575925,S
77,2187499,9.3033,1.4405,2.1081,-16.3800,-4.2700,-23.4500,998.8707,9.4375,-0.9799,2.4788,1590575925,S
77,2192317,9.7029,0.1842,2.4335,-13.6500,15.3300,-9.7300,998.8702,9.4949,-0.6463,2.3665,1590575926,S
77,2196843,9.1693,0.1747,3.7304,4.8300,13.2300,-12.9500,998.8695,9.5143,-0.3709,2.3477,1590575926,S
77,2201335,9.3512,0.4618,3.4672,5.3200,-2.5900,-11.5500,998.8689,9.6019,-0.0676,1.9924,1590575926,S
77,2201541,9.5354,1.2371,2.7733,4.1300,-1.1200,-5.8100,998.8685,9.7510,0.2815,1.0044,1590575926,S
77,2201248,9.4158,0.7896,2.8905,-23.7300,3.8500,2.0300,998.8673,9.7892,0.3321,0.4814,1590575926,S
78,2202944,9.3200,1.2467,3.4720,-16.7300,2.5200,4.1300,998.8660,9.7687,0.4036,-0.7617,1590575926,S
78,2204353,9.5043,0.7657,2.9958,-26.9500,-2.8000,2.6600,998.8647,9.7135,0.3825,-1.2933,1590575926,S
78,2206268,9.5306,0.8112,3.0197,-67.2700,4.1300,11.7600,998.8638,9.8006,0.3049,-0.1623,1590575926,S
78,2207970,9.4804,0.4211,3.4241,-20.9300,3.0800,15.3300,998.8622,9.7965,0.1674,0.4139,1590575926,S
78,2209895,9.1382,-0.3709,3.9266,-1.3300,2.1000,34.7900,998.8610,9.1081,-0.2401,3.6269,1590575926,S
78,2208591,9.2602,-1.8162,3.5294,22.4000,-9.2400,35.9800,998.8598,8.6212,-0.7414,4.6148,1590575927,S
78,2203435,9.2243,-1.2921,3.0365,74.1300,-6.3000,44.1700,998.8581,7.9387,-0.8997,5.6866,1590575927,S
78,2198170,8.9683,-2.2301,3.3523,63.0000,3.2200,37.8700,998.8563,7.7889,-1.1897,5.8385,1590575927,S
78,2192855,9.1693,-3.3667,3.6323,40.5300,-2.2400,0.4200,998.8557,8.0849,-1.4932,5.3455,1590575927,S
78,2191901,9.0305,-1.1940,3.6347,52.7800,-1.8900,-20.8600,998.8553,8.0578,-1.1526,5.4694,1590575927,S
78,2194707,9.1645,-0.2512,3.9912,9.0300,-5.6700,-8.4000,998.8544,8.0968,-0.8969,5.4597,1590575927,S
78,2200041,9.2602,-1.9669,3.3787,-32.2700,-8.5400,-26.1800,998.8544,8.9405,-1.0397,3.8932,1590575927,S
78,2206676,9.5186,0.3182,2.6201,-26.1100,-6.3700,-15.8900,998.8542,9.2105,-0.6794,3.2978,1590575927,S
78,2214326,9.0903,-0.7801,4.2329,5.1800,19.6700,-1.8200,998.8546,9.0794,-0.6854,3.6421,1590575927,S
77,2220741,9.2985,-0.3182,3.8883,12.1100,4.3400,17.2900,998.8549,8.8255,-0.7169,4.2151,1590575927,S
78,2226886,9.1860,-1.5817,4.1994,24.6400,-3.9200,16.0300,998.8557,8.6000,-0.9206,4.6220,1590575928,S
78,2228059,9.0377,0.4235,3.5366,28.3500,15.4000,40.3200,998.8559,7.6899,-0.7637,6.0376,1590575928,S
78,2225081,8.8606,-3.5605,3.3835,-14.4900,1.8900,26.4600,998.8560,8.3248,-1.5526,4.9454,1590575928,S
77,2222562,8.9348,-2.0052,4.4483,-14.7700,8.7500,-3.7100,998.8552,8.4564,-1.6564,4.6815,1590575928,S
77,2225138,8.5974,-1.8975,4.2832,9.9400,1.4700,-28.0700,998.8550,8.6298,-1.4846,4.4151,1590575928,S
77,2233626,8.4586,-1.0696,3.0867,-45.9900,11.4800,-23.1000,998.8550,8.9185,-1.3752,3.8392,1590575928,S
77,2237428,8.9827,1.9478,5.7691,37.9400,29.9600,-8.8200,998.8554,8.8033,-0.8801,4.2307,1590575928,S
77,2240874,8.7912,-2.1033,5.7667,1.7500,-16.6600,7.5600,998.8558,8.6448,-1.1302,4.4900,1590575928,S
77,2242628,8.8152,-1.3161,3.6945,10.8500,-5.2500,-9.3800,998.8555,8.7730,-1.0742,4.2485,1590575928,S
77,2246399,9.0257,-0.4283,4.0534,0.9800,3.0100,-6.3000,998.8546,8.8426,-0.8935,4.1450,1590575928,S
77,2245992,9.2219,-2.0770,2.3019,-61.0400,22.2600,7.8400,998.8542,8.9521,-1.4052,3.7491,1590575929,S
77,2251501,8.5113,-0.9404,5.8457,22.6800,19.2500,1.6100,998.8548,8.7170,-1.2991,4.3008,1590575929,S
77,2259511,8.5161,-1.3017,5.9821,10.0800,-11.9000,0.7000,998.8552,8.6196,-1.2600,4.5038,1590575929,S
76,2263758,8.7745,0.1771,5.0489,45.9200,-19.6000,4.7600,998.8547,8.4679,-0.8683,4.8694,1590575929,S
77,2262268,8.5208,0.1436,3.8644,7.4900,-0.3500,28.9100,998.8540,8.0909,-0.8181,5.4807,1590575929,S
77,2251593,10.3131,-2.7446,3.5198,-29.7500,-6.2300,-31.7800,998.8535,8.8883,-0.8663,4.0519,1590575929,S
76,2250074,8.8008,1.3041,4.4243,-55.8600,6.7900,-23.7300,998.8531,9.2847,-0.3715,3.1347,1590575929,S
76,2254684,8.5591,1.0481,5.5011,2.8000,2.0300,-0.4900,998.8534,9.4182,-0.0895,2.7314,1590575929,S
76,2258629,8.6620,-0.7466,5.0704,0.2800,-19.9500,-1.1900,998.8531,9.3101,-0.2058,3.0741,1590575929,S
76,2262978,8.9946,-0.7226,4.3214,1.6800,-24.8500,-6.4400,998.8517,9.3396,-0.2391,2.9807,1590575929,S
76,2264423,9.3488,0.3948,3.1944,-26.7400,-11.6200,2.3100,998.8499,9.4557,-0.1637,2.5950,1590575930,S
76,2259723,9.2554,-0.0191,2.8068,-17.2200,-11.9000,-16.4500,998.8489,9.6452,-0.0060,1.7721,1590575930,S
76,2257033,9.2913,0.3398,4.1037,-25.9700,-8.7500,1.1900,998.8483,9.6556,0.0081,1.7147,1590575930,S
76,2249365,9.6407,-1.9071,1.8616,-102.1300,14.9800,0.7700,998.8481,9.4917,-0.5987,2.3915,1590575930,S
76,2238302,8.9372,1.3472,4.4650,9.1700,1.4700,-10.9900,998.8473,9.5876,-0.1273,2.0573,1590575930,S
76,2230631,9.6072,-3.3787,1.7420,-116.9000,17.0800,-14.9100,998.8470,9.4659,-0.8858,2.4047,1590575930,S
76,2227085,8.9133,-0.4116,5.4030,11.9000,3.8500,-7.6300,998.8478,9.4043,-0.7434,2.6788,1590575930,S
76,2226318,9.5665,0.3135,3.1513,106.0500,-11.2700,5.5300,998.8488,9.4466,-0.3391,2.6111,1590575930,S
76,2229773,8.8917,1.3065,2.8786,78.1900,-10.3600,53.9000,998.8489,9.7620,-0.3000,-0.8849,1590575930,S
76,2233996,8.9396,-2.8116,3.3715,64.3300,11.6200,68.8800,998.8494,7.3265,-0.7985,6.4695,1590575930,S
76,2233805,9.4277,-4.0343,4.5081,-24.2200,5.5300,16.8700,998.8497,7.9253,-1.3903,5.6060,1590575931,S
76,2230457,9.1358,0.6293,3.9673,112.8400,-0.3500,-23.8700,998.8497,9.7590,-0.7874,-0.5593,1590575931,S
76,2226801,9.1645,-0.4762,4.2951,-15.9600,4.3400,7.2100,998.8501,9.7264,-0.7201,-1.0241,1590575931,S
76,2224219,8.7721,-3.0604,4.3167,-55.5100,-1.1200,-21.5600,998.8512,8.5146,-1.0886,4.7420,1590575931,S
76,2225135,9.0090,-0.2417,3.6610,-40.6700,-13.7900,-22.4000,998.8520,9.0076,-0.8481,3.7834,1590575931,S
76,2227902,9.6742,-0.4546,2.5938,-17.9900,-20.0900,-37.3800,998.8534,9.4375,-0.4713,2.6234,1590575931,S
76,2236050,9.2267,0.3900,2.5484,-14.9100,23.9400,-21.9100,998.8539,9.5785,-0.1318,2.0991,1590575931,S
76,2244261,8.7793,0.8566,4.5200,14.7700,30.8000,11.4100,998.8544,9.5407,-0.0344,2.2681,1590575931,S
76,2253738,8.7769,-0.4594,5.4748,17.8500,7.8400,17.5700,998.8542,8.8717,-0.2330,4.1725,1590575931,S
76,2259658,8.7673,-1.3161,5.2020,16.8700,-16.1000,4.7600,998.8539,8.4995,-0.4175,4.8739,1590575931,S
76,2260375,9.2124,0.0455,3.0365,-23.2400,-6.7200,18.7600,998.8542,8.5845,-0.5095,4.7135,1590575932,S
75,2263347,9.0951,-0.4499,2.5268,-37.3100,11.3400,5.3900,998.8541,8.9604,-0.6430,3.9330,1590575932,S
76,2265356,8.8774,1.7635,4.3430,17.9900,15.2600,8.7500,998.8536,8.1660,-0.2021,5.4264,1590575932,S
75,2271330,9.3464,-2.1081,5.3384,50.6800,17.9200,13.2300,998.8532,9.7917,-0.3693,-0.3956,1590575932,S
76,2279118,8.5184,-2.0171,6.0706,-24.9200,-19.3900,26.8100,998.8531,7.7546,-0.8258,5.9459,1590575932,S
75,2281682,8.7936,0.1723,4.5966,0.7700,-24.0100,49.5600,998.8528,7.4540,-0.8754,6.3120,1590575932,S
75,2279244,8.7458,-0.9882,2.2158,63.0700,-13.5100,59.7800,998.8522,7.3800,-1.0748,6.3679,1590575932,S
75,2274773,8.3892,-2.7087,2.3904,11.5500,15.5400,104.0200,998.8517,7.6439,-2.1358,5.7601,1590575932,S
75,2269934,7.0899,-5.0967,2.4742,42.1400,82.2500,77.3500,998.8516,7.1096,-3.0480,6.0277,1590575932,S
75,2265106,5.4580,-4.9053,6.8674,21.7000,113.1200,35.1400,998.8516,5.9334,-3.3574,7.0493,1590575932,S
75,2263433,3.7950,-5.8863,8.1500,-22.8200,89.1800,22.7500,998.8528,4.8711,-3.9052,7.5626,1590575933,S
75,2264992,3.2710,-4.9938,8.9994,18.3400,64.6800,-1.3300,998.8525,4.1194,-3.7091,8.0897,1590575933,S
75,2265642,3.6921,-5.3145,8.3988,-33.3200,31.3600,0.0700,998.8521,3.8476,-4.1083,8.0305,1590575933,S
75,2266945,3.3404,-6.2907,6.5539,-30.7300,48.8600,1.3300,998.8521,3.5300,-4.6376,7.8868,1590575933,S
75,2267765,0.9739,-4.9340,11.7751,-25.5500,10.9900,25.0600,998.8524,3.0344,-4.8683,7.9538,1590575933,S
75,2264239,-0.8662,-7.0325,6.5587,-49.7000,8.1200,41.1600,998.8524,2.1101,-5.6917,7.7021,1590575933,S
75,2257151,0.5480,-6.9368,6.8052,-33.8100,-15.3300,21.2100,998.8525,1.8274,-6.3290,7.2646,1590575933,S
75,2250683,1.3639,-7.5852,6.5252,-29.4700,-15.8200,2.3800,998.8522,1.8148,-6.8270,6.8022,1590575933,S
75,2245350,1.0193,-7.8269,6.0395,2.5900,9.4500,-7.5600,998.8516,1.6484,-6.8503,6.8211,1590575933,S
75,2234108,1.7037,-7.9202,6.1974,3.0100,5.4600,-9.7300,998.8516,1.6753,-6.8895,6.7748,1590575933,S
75,2226638,1.0624,-7.5254,6.2477,3.0800,1.7500,-3.5000,998.8525,1.5635,-6.9333,6.7569,1590575934,S
76,2224227,1.4166,-7.5733,6.2381,1.4000,-1.2600,-1.8200,998.8534,1.5504,-7.0290,6.6604,1590575934,S
75,2222336,1.4931,-7.5398,6.2094,-0.5600,0.7700,-1.1200,998.8550,1.5417,-7.1104,6.5754,1590575934,S
76,2218739,1.2921,-7.0923,6.4008,-11.4800,0.3500,1.4000,998.8569,1.4871,-7.2055,6.4839,1590575934,S
75,2211788,1.1868,-7.6810,6.0467,-18.1300,1.2600,6.0200,998.8592,1.3880,-7.4356,6.2414,1590575934,S
76,2204279,1.2778,-8.1332,5.8361,-4.1300,2.8700,0.2100,998.8614,1.3475,-7.5359,6.1291,1590575934,S
76,2199506,1.1246,-7.8915,5.8289,3.9900,0.4200,-2.4500,998.8632,1.3152,-7.5459,6.1238,1590575934,S
76,2198293,1.2873,-7.7934,5.9270,7.7000,-1.9600,-1.7500,998.8642,1.3280,-7.5390,6.1294,1590575934,S
76,2198307,1.2467,-7.7527,6.1304,4.6200,-1.8900,0.6300,998.8647,1.3132,-7.5482,6.1213,1590575934,S
76,2196954,1.2371,-7.6355,6.0897,1.9600,-1.2600,1.4000,998.8661,1.2947,-7.5689,6.0997,1590575934,S
76,2194537,1.1797,-7.5829,6.0706,-4.8300,1.6100,2.7300,998.8679,1.2488,-7.6165,6.0498,1590575935,S
76,2191394,0.9739,-7.7288,6.0156,-0.6300,1.0500,0.9100,998.8691,1.1834,-7.6376,6.0363,1590575935,S
76,2186573,1.0050,-7.7671,5.9821,-0.3500,-0.3500,-0.3500,998.8706,1.1501,-7.6562,6.0191,1590575935,S
75,2181182,0.9906,-7.7073,6.0610,1.8900,-2.5200,-2.1700,998.8718,1.1402,-7.6447,6.0356,1590575935,S
75,2178739,1.5003,-7.6905,6.1184,-0.5600,-2.3800,-1.5400,998.8727,1.2263,-7.6383,6.0269,1590575935,S
75,2176707,1.3208,-7.6355,5.9605,-8.8200,4.6200,1.9600,998.8732,1.2140,-7.6799,5.9763,1590575935,S
75,2172362,0.9595,-7.9609,5.7954,-3.6400,6.6500,4.7600,998.8745,1.1067,-7.7399,5.9194,1590575935,S
75,2168612,0.9356,-7.9107,5.9390,-0.9800,1.8200,1.6800,998.8755,1.0529,-7.7615,5.9010,1590575935,S
75,2167231,0.8806,-7.8820,5.9342,5.3200,-0.9100,-2.0300,998.8767,1.0334,-7.7249,5.9522,1590575935,S
75,2167534,1.2012,-7.5063,6.1017,12.1800,-3.7800,-3.4300,998.8782,1.1062,-7.6146,6.0799,1590575935,S
75,2166986,0.9284,-7.6235,5.9749,2.6600,-0.1400,-0.6300,998.8798,1.0768,-7.6074,6.0941,1590575936,S
75,2161793,1.0337,-7.5111,6.2788,2.9400,0.6300,-0.2800,998.8820,1.0672,-7.5582,6.1567,1590575936,S
75,2157657,1.1533,-7.6116,6.2213,-0.5600,-1.0500,-0.5600,998.8829,1.0896,-7.5604,6.1501,1590575936,S
75,2155560,1.0720,-7.6235,6.1998,-1.6800,-0.1400,-0.5600,998.8837,1.0878,-7.5659,6.1436,1590575936,S
75,2153661,1.0816,-7.7384,6.1161,-3.5000,-0.4200,0.6300,998.8845,1.0814,-7.6122,6.0874,1590575936,S
75,2152398,1.0720,-7.5900,6.1639,-2.7300,0.1400,1.0500,998.8845,1.0717,-7.6287,6.0684,1590575936,S
75,2151183,0.9811,-7.7527,6.0538,-2.7300,-0.4900,0.7000,998.8842,1.0492,-7.6676,6.0230,1590575936,S
75,2150630,1.0169,-7.8580,5.9773,-0.0700,-1.8900,-0.3500,998.8844,1.0498,-7.6980,5.9840,1590575936,S
75,2149634,1.0887,-7.7192,6.0323,1.2600,-1.1200,-0.7000,998.8846,1.0653,-7.6883,5.9938,1590575936,S
75,2145762,1.1318,-7.8389,5.9988,-0.2100,0.0700,-0.4900,998.8849,1.0782,-7.6938,5.9844,1590575936,S
74,2141892,1.0839,-7.7527,5.9462,0.8400,0.0700,-0.7000,998.8843,1.0829,-7.6895,5.9892,1590575937,S
75,2140267,1.0887,-7.7767,6.0562,0.8400,0.0700,-0.9800,998.8842,1.0873,-7.6743,6.0077,1590575937,S
75,2139182,1.1629,-7.6642,6.0682,2.6600,0.9800,-1.5400,998.8843,1.1072,-7.6284,6.0623,1590575937,S
75,2138083,1.1486,-7.6451,6.1591,1.4000,0.5600,-0.7700,998.8845,1.1161,-7.5998,6.0965,1590575937,S
74,2137334,1.1222,-7.7240,6.0491,1.6100,1.6800,-0.5600,998.8844,1.1126,-7.5866,6.1136,1590575937,S
