0,2526789,0.5384,-5.8552,6.1759,52.0800,-13.7200,18.6900,1000.3539,0.6192,-6.7337,7.1024,1590565001,V
0,2534403,1.0887,-8.5089,4.2855,-22.4700,-17.9200,36.0500,1000.3572,0.5891,-8.1743,5.3855,1590565001,V
0,2533627,0.3159,-9.5593,4.2281,-16.9400,0.8400,-8.6800,1000.3593,0.5759,-8.3011,5.1894,1590565001,V
0,2533246,0.2441,-7.9250,5.2546,13.6500,2.3800,-14.4900,1000.3611,0.6012,-7.9602,5.6960,1590565001,V
0,2147483647,0.8662,-8.3198,5.0010,3.1500,0.2800,1.6800,1000.3628,0.6465,-8.0599,5.5490,1590565001,V
0,2147483647,-0.0383,-8.7338,5.1326,17.2200,1.6100,14.0000,1000.3653,0.4113,-8.3196,5.1754,1590565001,V
0,1092350,0.2943,-7.8126,4.9053,57.2600,31.8500,3.5700,1000.3677,0.2644,-7.5291,6.2780,1590565001,V
0,1284070,0.2680,-6.6688,6.7478,44.5900,39.5500,17.1500,1000.3697,-0.0447,-3.0585,9.3174,1590565001,V
0,1290635,1.3472,-8.0758,7.8604,15.4700,29.3300,28.8400,1000.3716,-0.1679,-7.7609,5.9925,1590565001,V
0,1993004,-0.4786,-9.5737,8.2624,-15.8900,-6.9300,-9.1000,1000.3743,-0.0954,-8.2802,5.2536,1590565001,V
0,2004691,-0.5910,-6.8243,6.8028,-18.3400,-17.1500,-40.3900,1000.3771,-0.0007,-4.1253,8.8967,1590565002,V
0,2001279,-0.2369,-7.8030,5.2187,-2.2400,-4.7600,-35.1400,1000.3798,0.1069,-4.8622,8.5158,1590565002,V
0,1999713,0.5623,-7.1091,5.5178,-28.8400,11.6900,-24.9200,1000.3820,0.2609,-5.4835,8.1261,1590565002,V
0,1998295,0.9763,-7.4800,5.6566,-29.1200,7.4900,-8.7500,1000.3843,0.4511,-6.2153,7.5721,1590565002,V
0,2173318,0.9930,-8.3557,5.6016,7.9100,10.9200,-10.5000,1000.3867,0.5666,-6.4167,7.3943,1590565002,V
0,2176148,0.8518,-8.2935,5.8887,4.3400,7.8400,-15.3300,1000.3891,0.6589,-6.4951,7.3178,1590565002,V
0,2253578,0.6269,-7.7121,6.0969,-3.7800,-2.8700,-10.6400,1000.3915,0.7279,-6.6855,7.1375,1590565002,V
0,2252189,0.8303,-7.1258,5.9462,-0.1400,-15.4000,5.8100,1000.3937,0.8188,-7.1684,6.6418,1590565002,V
0,2249281,1.6774,-8.2122,4.3334,-18.9700,-10.2200,9.3800,1000.3953,1.0211,-7.9378,5.6673,1590565002,V
0,2246366,1.7228,-9.2195,4.6445,-5.3200,3.9200,-2.8700,1000.3973,1.1555,-8.1177,5.3794,1590565002,V
0,2245368,1.2275,-8.0853,5.5920,-5.1100,3.6400,-13.5800,1000.3988,1.2366,-7.9842,5.5582,1590565003,V
0,2245583,1.1844,-8.3797,4.9101,-48.8600,-10.8500,-1.4000,1000.4005,1.2538,-8.3598,4.9712,1590565003,V
0,2244984,1.2347,-7.7551,4.4435,-15.7500,-16.1000,6.1600,1000.4017,1.2664,-8.5593,4.6158,1590565003,V
0,2244040,1.2443,-10.3729,3.4289,-44.2400,-11.4800,-5.7400,1000.4026,1.2943,-8.8556,4.0093,1590565003,V
0,2241591,2.4479,-8.0734,4.3334,-16.2400,-35.2100,-13.1600,1000.4031,1.6929,-8.8350,3.9048,1590565003,V
0,2236381,3.7304,-8.9850,1.1366,16.3100,-30.2400,14.7700,1000.4042,2.1000,-9.0155,3.2373,1590565003,V
0,2230488,1.7898,-10.5691,1.1198,-35.9100,15.1200,-1.6800,1000.4058,1.9551,-9.2818,2.4891,1590565003,V
0,2226119,2.1559,-8.7506,3.5174,-15.1200,7.2800,-8.8200,1000.4070,2.0301,-9.2242,2.6387,1590565003,V
0,2224027,1.1892,-9.3559,3.2016,-56.9100,-26.3200,3.1500,1000.4089,1.7319,-9.4056,2.1693,1590565003,V
0,2223358,1.6510,-8.9946,0.8542,20.4400,-21.2100,6.4400,1000.4107,1.8021,-9.4357,1.9724,1590565003,V
0,2221432,1.6774,-9.2913,-0.1723,14.9100,13.0200,5.3900,1000.4123,1.8649,-9.4904,1.6200,1590565004,V
0,2219515,1.6199,-10.3537,2.1679,12.3200,15.8200,1.4700,1000.4138,1.7976,-9.4682,1.8146,1590565004,V
0,2221400,1.8138,-9.5186,3.2447,46.2000,10.4300,-6.0200,1000.4150,2.0036,-9.2723,2.4860,1590565004,V
0,2222930,2.1823,-8.7410,2.8690,39.4800,19.6700,-7.9100,1000.4172,2.2000,-9.0794,2.9823,1590565004,V
0,2225500,2.1942,-8.5113,3.6945,46.2700,17.0800,-11.3400,1000.4195,2.3802,-8.8052,3.6019,1590565004,V
0,2231708,2.0363,-7.9825,4.8024,20.2300,13.1600,0.3500,1000.4208,2.3380,-8.6245,4.0400,1590565004,V
0,2238038,1.4022,-7.8580,5.6423,28.1400,7.4900,-0.2800,1000.4219,2.1937,-8.4004,4.5598,1590565004,V
0,2243243,2.2756,-8.4371,4.9005,-6.6500,3.0800,11.5500,1000.4226,2.0983,-8.4589,4.4960,1590565004,V
0,2245473,2.4120,-8.8152,4.8287,-7.1400,7.1400,-6.0900,1000.4228,2.1485,-8.4316,4.5235,1590565004,V
0,2246643,1.6391,-8.6381,5.4078,11.0600,6.0900,-18.5500,1000.4227,2.1549,-8.2396,4.8617,1590565004,V
0,2246254,1.1294,-7.6187,6.1352,8.7500,-4.0600,-14.9100,1000.4230,2.0797,-8.0327,5.2269,1590565005,V
0,2242454,1.8377,-6.9655,5.8600,11.2700,-12.1800,5.1800,1000.4238,2.0793,-7.9162,5.4019,1590565005,V
0,2238469,1.5099,-7.1378,5.3886,3.5700,-15.4700,10.5700,1000.4238,1.9819,-7.9730,5.3548,1590565005,V
0,2236874,2.8403,-7.7767,4.5224,-14.6300,-10.9200,34.5800,1000.4232,1.9634,-8.2880,4.8606,1590565005,V
0,2235992,1.7324,-9.3488,4.6421,-8.8200,3.4300,3.1500,1000.4218,1.8446,-8.4213,4.6744,1590565005,V
0,2237767,2.0937,-8.0518,5.0225,-9.1700,0.6300,17.6400,1000.4212,1.7610,-8.5012,4.5605,1590565005,V
0,2239711,1.7563,-8.4036,4.8909,-1.2600,10.8500,4.0600,1000.4206,1.6949,-8.4819,4.6212,1590565005,V
0,2241341,0.9045,-7.8987,5.0106,-0.2100,9.6600,11.6900,1000.4199,1.4333,-8.5109,4.6563,1590565005,V
0,2242347,0.6389,-8.1308,4.8072,-4.0600,6.9300,26.8100,1000.4197,1.0562,-8.7064,4.3878,1590565005,V
0,2239808,0.4331,-8.7817,4.5200,-15.8900,12.1100,37.8700,1000.4193,0.5820,-9.0719,3.6787,1590565005,V
0,2237533,-0.2010,-9.1956,4.5846,-3.5000,11.6900,31.5700,1000.4188,0.5608,-5.7583,7.9182,1590565006,V
0,2236497,-0.6437,-9.5617,4.3023,-16.1000,1.4000,14.1400,1000.4188,0.2411,-5.5248,8.0987,1590565006,V
0,2235583,-1.6534,-9.1884,4.7282,0.2800,-14.0000,-1.4000,1000.4192,-0.1141,-6.0805,7.6932,1590565006,V
0,2234352,-1.8736,-8.3940,4.4172,3.9900,-42.4900,6.7900,1000.4203,-0.3586,-6.6369,7.2107,1590565006,V
0,2232829,-1.5936,-8.3486,4.0463,6.0900,-46.9700,29.6800,1000.4214,-0.5867,-6.7202,7.1179,1590565006,V
0,2230361,-1.1988,-8.5113,3.5677,-10.2900,-43.9600,45.0800,1000.4225,-0.8013,-6.8478,6.9739,1590565006,V
0,2225604,-0.8806,-8.8511,3.1059,-8.0500,-23.6600,47.8800,1000.4241,-1.0517,-7.1172,6.6641,1590565006,V
0,2218652,-1.1844,-8.4802,3.3428,2.5900,3.0100,49.2100,1000.4245,-1.4678,-7.4457,6.2111,1590565006,V
0,2212928,-1.7037,-8.1380,4.0104,-7.3500,25.6900,47.8100,1000.4240,-1.9681,-7.7401,5.6910,1590565006,V
0,2208262,-2.7182,-8.5998,4.5607,-30.6600,36.4700,56.3500,1000.4249,-2.5869,-7.9599,5.1107,1590565006,V
0,2204076,-3.8094,-8.6764,4.3645,-28.8400,31.1500,38.0800,1000.4260,-3.1062,-8.0895,4.5915,1590565007,V
0,2200404,-4.2281,-7.3651,3.4696,-55.2300,21.2800,39.7600,1000.4268,-3.6151,-8.1976,3.9876,1590565007,V
0,2196687,-5.8050,-8.1428,1.8377,-79.3800,14.0700,67.4800,1000.4274,-4.2624,-8.2972,3.0264,1590565007,V
0,2193467,-6.5276,-6.8076,1.0935,-18.4100,18.0600,75.2500,1000.4283,-5.0936,-7.9636,2.6089,1590565007,V
0,2191387,-7.4776,-5.8648,0.1436,-2.3800,19.5300,89.3900,1000.4294,-6.0154,-7.4338,2.1732,1590565007,V
0,2187949,-8.4873,-4.4650,-1.1174,-0.1400,19.0400,81.2700,1000.4310,-6.6637,-7.0430,1.4702,1590565007,V
0,2185983,-9.2052,-3.5868,-1.3519,8.5400,13.6500,74.4800,1000.4332,-7.0008,-6.8154,0.8418,1590565007,V
0,2185757,-9.7484,-2.9288,-0.8088,8.4000,16.6600,56.8400,1000.4360,-7.1565,-6.6926,0.4053,1590565007,V
0,2186318,-10.2556,-1.6439,-1.1318,-5.8800,13.9300,42.8400,1000.4393,-7.7101,-6.0576,-0.1707,1590565007,V
0,2185844,-10.2293,-2.0100,0.0670,-56.6300,-6.7200,6.7200,1000.4430,-8.0104,-5.6509,-0.2647,1590565007,V
0,2183715,-10.2485,-1.3902,-0.1460,-38.0800,-9.1000,8.7500,1000.4467,-8.3754,-5.0922,-0.3043,1590565008,V
0,2177661,-9.8273,-1.0385,-0.7825,-36.2600,-9.1700,16.8000,1000.4502,-9.0833,-3.6693,-0.4479,1590565008,V
0,2169544,-9.8680,-0.9787,-0.4187,-14.2100,-4.1300,3.5700,1000.4538,-9.2753,-3.1514,-0.4559,1590565008,V
0,2160888,-10.0857,-1.0481,-0.5862,-24.7800,-3.9900,-0.4200,1000.4576,-9.4003,-2.7427,-0.5311,1590565008,V
0,2155108,-10.1432,-0.6604,-0.1890,3.7800,-4.7600,-4.1300,1000.4618,-9.4248,-2.6705,-0.4615,1590565008,V
0,2152048,-9.6168,-0.6820,-0.5240,-8.4700,-21.4200,-3.4300,1000.4655,-9.3938,-2.7668,-0.5204,1590565008,V
0,2148679,-9.5713,-1.2538,-0.8782,31.6400,1.8900,-13.2300,1000.4693,-9.4055,-2.7077,-0.6121,1590565008,V
0,2145414,-10.3729,-1.8640,-0.8997,12.0400,4.6200,1.1200,1000.4733,-9.7509,-0.9987,-0.3048,1590565008,V
0,2142476,-10.0451,-1.5003,-1.1988,53.2000,19.8800,-7.6300,1000.4755,-9.6797,-1.4453,-0.6211,1590565008,V
0,2139718,-10.5547,-1.5386,-0.6987,84.4900,16.6600,-2.4500,1000.4775,-9.5969,-1.8896,-0.7067,1590565008,V
0,2135168,-10.5356,-1.8018,-0.9045,111.9300,11.4800,-9.6600,1000.4799,-9.3718,-2.7948,-0.7269,1590565009,V
0,2129315,-10.5906,-2.4000,0.6891,94.2900,4.4800,-43.1900,1000.4830,-7.4193,-6.4078,-0.2535,1590565009,V
0,2125753,-10.1719,-3.9290,0.7801,82.6700,-19.1800,-90.0200,1000.4861,-6.4324,-7.3846,0.5116,1590565009,V
0,2122746,-8.5998,-4.7354,1.4094,43.1200,-49.5600,-106.6800,1000.4888,-8.7353,-4.3706,0.8734,1590565009,V
0,2119660,-7.5541,-5.7739,2.2014,8.8900,-59.0100,-116.4800,1000.4908,-7.4430,-6.1678,1.6527,1590565009,V
0,2118076,-6.4032,-6.8818,3.8955,25.9700,-46.6900,-112.2800,1000.4918,-6.2469,-7.1490,2.4572,1590565009,V
0,2119442,-4.1563,-6.0132,3.6610,7.4200,-48.6500,-96.3900,1000.4925,-5.0780,-7.8726,2.8993,1590565009,V
0,2120396,-2.2780,-7.3771,3.9529,-23.6600,-31.7100,-56.2100,1000.4929,-4.0165,-8.4469,2.9476,1590565009,V
0,2119554,-1.1797,-7.8365,3.7089,-33.4600,-17.8500,-40.9500,1000.4931,-3.0880,-8.8873,2.7659,1590565009,V
0,2119992,-0.4953,-7.9418,3.5892,4.2700,3.5000,-18.5500,1000.4925,-2.6337,-9.0003,2.8686,1590565009,V
0,2128398,-0.5910,-9.3607,3.0197,-1.2600,24.2900,-9.2400,1000.4910,-2.1521,-9.1453,2.8110,1590565010,V
0,2142968,-2.3474,-9.8895,3.8716,1.3300,25.0600,-20.6500,1000.4887,-2.0353,-9.1927,2.7425,1590565010,V
0,2158706,-1.7635,-7.4417,3.0413,27.3000,31.1500,-23.9400,1000.4854,-2.0205,-9.1446,2.9092,1590565010,V
0,2162946,-4.6660,-8.6333,2.8881,-44.0300,24.0100,10.4300,1000.4827,-2.5069,-9.1208,2.5878,1590565010,V
0,2165970,-1.9669,-8.6524,2.5268,-9.1000,14.3500,-38.0800,1000.4799,-2.0931,-9.2836,2.3673,1590565010,V
0,2161831,-0.9188,-9.3129,3.6849,46.9000,21.2100,-16.8000,1000.4766,-1.9138,-9.1911,2.8340,1590565010,V
0,2159967,0.7155,-8.9420,4.9077,63.1400,9.5900,-15.8200,1000.4734,-1.4487,-9.0776,3.4160,1590565010,V
0,2161821,-0.6317,-9.5067,4.1109,12.2500,-14.0000,-6.0900,1000.4706,-1.1833,-9.0956,3.4698,1590565010,V
0,2164096,1.2443,-10.4016,4.2784,-2.8700,-13.5100,-40.0400,1000.4679,-1.4529,-6.0094,7.6123,1590565010,V
0,2162664,1.0409,-6.2094,4.7521,-68.0400,-12.3900,-14.9800,1000.4653,-0.9019,-6.5137,7.2752,1590565011,V
0,2156956,-0.1412,-11.8851,2.0961,-32.2000,5.1800,-10.9200,1000.4630,-0.6943,-7.1549,6.6706,1590565011,V
0,2154234,0.9021,-8.7458,2.8044,-25.9000,-2.1700,-38.8500,1000.4611,-0.1190,-6.8283,7.0378,1590565011,V
0,2154675,2.0578,-7.3220,1.3304,-2.1000,-3.5700,13.5800,1000.4582,0.3364,-7.2682,6.5750,1590565011,V
0,2153363,1.3232,-10.7318,0.9882,-14.8400,1.1200,25.1300,1000.4568,0.5221,-8.7526,4.3920,1590565011,V
0,2152219,0.9356,-9.3033,3.1322,16.8000,11.9000,4.8300,1000.4562,0.5582,-8.9153,4.0467,1590565011,V
0,2151912,1.1964,-9.8225,3.1561,12.7400,-11.6900,-9.9400,1000.4561,0.7777,-9.0510,3.6939,1590565011,V
0,2151363,1.2610,-9.7053,1.7683,5.8100,3.5000,-7.8400,1000.4553,0.9641,-9.2141,3.2159,1590565011,V
0,2150448,1.4692,-9.0712,3.0724,0.3500,-9.5200,-2.3800,1000.4539,1.0979,-9.2256,3.1389,1590565011,V
0,2147833,1.4501,-9.9015,2.6154,-3.2200,-0.3500,0.3500,1000.4523,1.1493,-9.2850,2.9391,1590565011,V
0,2147094,1.0648,-9.7747,3.1801,31.5000,0.6300,-13.9300,1000.4510,1.2731,-9.1197,3.3734,1590565012,V
0,2146321,2.3426,-9.8919,1.6080,22.0500,-2.5200,-11.9700,1000.4485,1.6352,-9.1299,3.1846,1590565012,V
0,2145533,1.6774,-9.1047,3.5844,2.1000,12.4600,-16.5900,1000.4471,1.7494,-9.0143,3.4429,1590565012,V
0,2149317,2.6632,-8.2337,3.6826,-7.7000,-13.1600,-11.4800,1000.4459,2.0505,-8.9307,3.4940,1590565012,V
0,2152662,2.1990,-9.1358,3.1418,-6.3000,-13.3700,-6.1600,1000.4443,2.1415,-8.9663,3.3451,1590565012,V
0,2152634,2.5938,-8.1428,2.4814,-0.8400,-15.6100,-16.5900,1000.4427,2.4453,-8.9282,3.2369,1590565012,V
0,2151350,2.5507,-8.4754,2.5077,-9.3100,2.1000,12.4600,1000.4406,2.3723,-9.0337,2.9892,1590565012,V
0,2151782,3.2997,-9.5593,3.4528,-6.0900,10.5000,5.3900,1000.4392,2.4154,-9.0228,2.9877,1590565012,V
0,2151672,2.6345,-7.5015,3.0556,-7.7000,-14.9100,9.5900,1000.4381,2.4172,-9.0537,2.8909,1590565012,V
0,2153521,1.1821,-9.6072,2.6560,19.2500,12.5300,8.2600,1000.4369,2.1099,-9.0900,3.0150,1590565012,V
0,2154033,1.7874,-9.6957,1.5338,-38.8500,-7.2800,13.0200,1000.4358,1.8564,-9.3547,2.2832,1590565012,V
0,2152358,2.4263,-8.3916,2.3737,5.6000,1.1200,9.5900,1000.4357,1.9414,-9.3195,2.3554,1590565013,V
0,2151655,1.2945,-9.1813,2.1607,-2.1000,4.9000,18.4800,1000.4355,1.6423,-9.4068,2.2326,1590565013,V
0,2152964,1.6367,-9.6503,1.9238,-7.0700,-6.7900,36.7500,1000.4357,1.3062,-9.5318,1.8997,1590565013,V
0,2153593,0.8566,-10.0857,1.9980,2.1700,-5.3200,22.6800,1000.4357,1.0106,-9.5923,1.7708,1590565013,V
0,2152512,0.5408,-10.8682,1.6654,15.6800,2.8700,0.9800,1000.4360,0.9704,-9.5753,1.8819,1590565013,V
0,2151035,-0.2154,-9.7244,3.8261,151.7600,-11.6200,-36.4000,1000.4363,1.4101,-9.0002,3.6303,1590565013,V
0,2153167,3.0293,-9.2770,4.6684,120.0500,-38.7100,-23.8700,1000.4366,2.1496,-8.2671,4.8171,1590565013,V
0,2164709,5.0106,-8.0351,5.6088,33.8100,-36.5400,-28.7700,1000.4374,2.8680,-7.8215,5.1739,1590565013,V
0,2193011,4.0654,-6.0849,5.2642,38.9200,-8.7500,-17.2200,1000.4378,3.3961,-7.2937,5.6070,1590565013,V
0,2219972,1.9214,-5.8935,3.4193,48.5100,66.6400,28.6300,1000.4372,2.8476,-7.1729,6.0507,1590565013,V
0,2224368,-0.9882,-5.7858,8.2122,-89.6700,27.8600,46.2000,1000.4363,1.5932,-8.0151,5.4213,1590565014,V
0,2226996,0.7609,-4.9484,6.6425,-27.9300,16.1000,38.3600,1000.4352,1.1541,-8.3058,5.0845,1590565014,V
0,2229330,-0.0239,5.4700,3.3500,-26.0400,4.3400,119.6300,1000.4335,1.0697,-2.6776,9.3732,1590565014,V
0,2228096,-1.4668,-10.0044,7.5087,-31.0800,19.3900,29.4000,1000.4312,0.4898,-3.6474,9.0899,1590565014,V
0,2229834,-0.9500,-9.3607,6.3793,-18.9000,-6.5100,-9.2400,1000.4291,0.3643,-3.9905,8.9506,1590565014,V
0,2230169,-1.6415,-7.9035,5.1972,1.1200,-12.9500,-22.1200,1000.4290,0.0349,-4.5234,8.7010,1590565014,V
0,2232346,-0.4881,-7.2550,4.7641,9.3800,3.5000,-10.2200,1000.4291,-0.0375,-4.6616,8.6277,1590565014,V
0,2233082,-0.9476,-8.0901,5.7858,-14.4900,1.9600,-2.8700,1000.4290,-0.2849,-5.6306,8.0241,1590565014,V
0,2233505,-0.7705,-7.5254,5.7715,-20.5100,-7.7000,6.5800,1000.4296,-0.4022,-6.1084,7.6613,1590565014,V
0,2233843,-0.2967,-8.8893,4.2712,-50.1900,-3.3600,13.2300,1000.4305,-0.4696,-6.7677,7.0815,1590565014,V
0,2231960,-1.7085,-9.2889,4.0798,-26.1800,-5.1100,0.3500,1000.4326,-0.7748,-7.8597,5.8134,1590565015,V
0,2229940,-0.3135,-8.7625,4.5894,20.3700,7.8400,1.1900,1000.4343,-0.7260,-7.9344,5.7174,1590565015,V
0,2229427,-1.0050,-8.8846,4.8670,36.5400,3.5700,-9.6600,1000.4359,-0.7428,-8.0926,5.4890,1590565015,V
0,2231197,-0.8997,-8.2600,4.9866,30.1000,9.7300,-7.4900,1000.4378,-0.7703,-8.1868,5.3435,1590565015,V
0,2232232,-0.5886,-7.8389,6.0610,37.8700,7.0700,-11.5500,1000.4390,-0.6945,-8.1333,5.4348,1590565015,V
0,2232712,-0.7585,-7.3460,6.1089,12.4600,9.1700,-4.5500,1000.4400,-0.7202,-8.0823,5.5070,1590565015,V
0,2231951,-1.0528,-7.9035,6.4630,3.9900,0.8400,-11.8300,1000.4408,-0.7069,-8.1134,5.4628,1590565015,V
0,2230408,-0.0048,-7.6020,6.4367,3.7800,-9.6600,-13.3000,1000.4399,-0.4437,-8.2664,5.2573,1590565015,V
0,2226702,-0.5838,-7.8580,6.4391,11.5500,-9.5200,-15.2600,1000.4391,-0.3354,-8.3516,5.1293,1590565015,V
0,2222539,-0.0933,-7.1067,6.5922,4.9700,-16.2400,-21.4900,1000.4383,-0.2419,-3.1927,9.2692,1590565016,V
0,2219493,0.9141,-7.1450,7.1258,-6.9300,-28.0700,-14.9800,1000.4375,0.2449,-6.2036,7.5911,1590565016,V
0,2217007,1.4429,-7.7551,5.6662,-13.6500,-23.5900,-9.1700,1000.4360,0.6620,-7.4254,6.3715,1590565016,V
0,2214548,1.9693,-7.3747,5.5872,15.6100,-10.8500,-4.1300,1000.4339,1.0084,-7.4909,6.2482,1590565016,V
0,2213008,2.1129,-7.6379,5.8911,-34.5100,-2.5900,-12.6000,1000.4318,1.3003,-7.6242,6.0292,1590565016,V
0,2212040,2.3474,-8.2983,6.0203,-1.1200,8.8900,-32.2700,1000.4305,1.6203,-7.3862,6.2441,1590565016,V
0,2210543,2.3521,-7.3843,5.7643,-54.1800,8.1900,-28.9800,1000.4288,1.8910,-7.5219,6.0013,1590565016,V
0,2208576,1.3376,-7.9729,5.7858,2.5900,7.5600,-23.7300,1000.4267,1.8744,-7.3753,6.1856,1590565016,V
0,2209907,2.3833,-8.4634,5.2953,-17.2900,-10.9900,-35.2800,1000.4250,2.2116,-7.5098,5.9061,1590565016,V
0,2210044,3.4816,-6.8435,5.0273,-0.2100,-13.1600,-21.7700,1000.4241,2.6843,-7.4589,5.7732,1590565016,V
0,2210988,3.0508,-7.7192,4.3837,-12.6000,-20.0200,-9.1000,1000.4240,2.9277,-7.6814,5.3474,1590565016,V
0,2213321,2.8738,-6.9511,3.8405,-1.8900,-17.9200,-10.2900,1000.4233,3.1246,-7.7318,5.1601,1590565017,V
0,2217247,3.7137,-6.5779,4.1037,20.4400,5.1800,9.4500,1000.4223,3.1848,-7.6451,5.2517,1590565017,V
0,2222989,3.4050,-7.8365,4.6014,0.2800,-0.9100,23.6600,1000.4207,3.0927,-7.8232,5.0402,1590565017,V
0,2226266,3.1705,-8.4227,4.5751,-4.2000,-2.6600,13.9300,1000.4198,3.0064,-7.9905,4.8253,1590565017,V
0,2226906,3.1250,-8.2600,5.1494,-3.0100,-12.0400,12.6000,1000.4189,2.9587,-8.0670,4.7265,1590565017,V
0,2228008,3.0508,-8.6955,4.4387,17.4300,-17.3600,15.8200,1000.4181,2.9330,-8.1320,4.6301,1590565017,V
0,2231362,3.1274,-7.9585,5.0943,30.5200,-14.9100,8.3300,1000.4175,3.0101,-7.9816,4.8378,1590565017,V
0,2240859,3.2375,-6.8818,5.3743,29.8900,-20.8600,24.5700,1000.4155,3.0623,-7.8306,5.0473,1590565017,V
0,2253750,3.3667,-8.1691,4.3956,19.4600,-36.7500,41.3700,1000.4146,3.0117,-8.0128,4.7848,1590565017,V
0,2260833,3.7208,-8.7242,3.8309,20.0900,-1.5400,30.8700,1000.4138,2.9583,-8.1345,4.6096,1590565017,V
0,2265337,1.9884,-7.0564,5.7906,-0.9800,2.6600,11.0600,1000.4132,2.7054,-8.1128,4.7993,1590565018,V
0,2267045,3.4313,-9.7819,5.4150,-18.9700,8.8900,10.8500,1000.4129,2.5653,-8.2753,4.5944,1590565018,V
0,2263566,2.7589,-9.5402,5.3958,-13.0900,-5.3900,-14.4900,1000.4123,2.6525,-8.2770,4.5415,1590565018,V
0,2259727,3.6443,-10.5236,4.8096,7.9800,7.3500,-55.4400,1000.4116,3.1008,-7.9662,4.8057,1590565018,V
0,2256308,3.1513,-8.0614,5.6495,-8.8200,8.6800,-85.8900,1000.4116,3.5857,-7.5216,5.1709,1590565018,V
0,2253821,4.2808,-7.4201,5.9366,-18.2700,-13.3000,-92.6100,1000.4119,4.2657,-7.0772,5.2809,1590565018,V
0,2252433,5.3001,-6.2357,4.8479,-17.1500,-12.7400,-98.7700,1000.4114,5.1065,-6.5670,5.1932,1590565018,V
0,2251834,6.0730,-3.6969,4.1563,-10.9200,-13.3000,-74.7600,1000.4105,5.8747,-5.9558,5.1173,1590565018,V
0,2253260,6.0945,-2.3234,2.6991,-28.1400,12.3900,-15.6800,1000.4098,6.1999,-5.7472,4.9701,1590565018,V
0,2256395,5.1613,-4.4578,3.4528,-49.0700,49.1400,2.1700,1000.4090,5.9390,-6.0663,4.9090,1590565018,V
0,2262594,6.8913,-4.4315,4.5583,-34.4400,37.1000,28.4900,1000.4074,5.8395,-6.1484,4.9262,1590565019,V
0,2272905,6.5444,-6.4893,5.9366,-23.8000,46.9700,31.0100,1000.4050,5.3971,-6.4338,5.0645,1590565019,V
0,2286268,3.3380,-7.4895,5.5896,-36.5400,10.0800,-0.9800,1000.4029,4.9300,-6.8228,5.0314,1590565019,V
0,2292844,5.4676,-4.1946,5.3216,20.2300,-4.8300,20.5800,1000.4006,4.9987,-6.5923,5.2654,1590565019,V
0,2293679,7.1139,-4.9292,2.8499,-6.7900,16.3800,111.8600,1000.3981,4.7716,-7.0948,4.8027,1590565019,V
0,2293180,-1.0409,-9.8536,10.2126,52.5700,83.9300,71.3300,1000.3958,3.3215,-7.1997,5.7708,1590565019,V
0,2292580,4.6038,-8.9659,6.9894,21.1400,-47.4600,-0.4200,1000.3931,3.6129,-7.1507,5.6556,1590565019,V
0,2288585,3.5797,-8.5543,6.1902,-7.0700,-40.4600,-24.2900,1000.3906,3.9084,-7.1566,5.4477,1590565019,V
0,2286204,3.3787,-5.4461,4.9340,29.0500,-39.9000,-13.3700,1000.3887,4.2494,-6.8827,5.5445,1590565019,V
0,2286266,3.0126,-4.2544,5.7308,64.4000,-13.9300,34.3700,1000.3875,4.1309,-6.5310,6.0375,1590565019,V
0,2287163,2.6082,-8.7984,6.1280,10.7100,-17.9900,37.7300,1000.3868,3.7807,-6.8634,5.8967,1590565020,V
0,2286030,4.2209,-7.3651,5.8433,13.9300,-5.3900,22.4700,1000.3862,3.7315,-6.9351,5.8438,1590565020,V
0,2284331,3.7998,-7.6259,6.1161,10.7800,-9.5200,11.9700,1000.3865,3.6757,-6.9892,5.8147,1590565020,V
0,2283006,3.4983,-6.8985,5.9127,29.4700,-4.4800,2.9400,1000.3863,3.6717,-6.8389,5.9932,1590565020,V
0,2282488,3.5486,-6.0682,6.5252,11.6900,8.2600,4.4800,1000.3865,3.6157,-6.6632,6.2208,1590565020,V
0,2279909,3.2997,-6.7310,6.7047,-2.8000,4.2000,-0.8400,1000.3877,3.5198,-6.6572,6.2820,1590565020,V
0,2279182,3.5892,-7.1976,6.8530,1.9600,8.8900,-12.6000,1000.3880,3.5056,-6.5707,6.3802,1590565020,V
0,2279619,3.3260,-5.9868,6.6018,4.5500,10.2200,-28.9800,1000.3879,3.5889,-6.2967,6.6061,1590565020,V
0,2281714,3.6419,-5.0321,7.2981,56.3500,3.7800,-11.6200,1000.3885,3.6419,-5.6437,7.1453,1590565020,V
0,2284268,3.4265,-6.5587,7.1139,-9.3800,10.3600,-14.7000,1000.3887,3.5828,-5.7331,7.1040,1590565021,V
0,2286036,3.0293,-5.0489,7.4345,-5.4600,11.2700,-9.7300,1000.3885,3.4768,-5.5966,7.2636,1590565021,V
0,2289988,2.7589,-5.1063,7.6331,10.2900,4.6200,6.6500,1000.3880,3.2823,-5.4777,7.4425,1590565021,V
0,2290946,3.8692,-4.9531,6.7430,27.1600,11.1300,26.3200,1000.3871,3.2474,-5.3454,7.5532,1590565021,V
0,2289063,3.2614,-4.7378,7.0469,32.9700,52.4300,36.0500,1000.3868,2.7992,-5.0362,7.9355,1590565021,V
0,2288336,-0.8638,-7.2718,11.2654,24.7100,35.9100,-6.5800,1000.3866,2.1250,-4.6557,8.3654,1590565021,V
0,2296225,1.0361,-4.4746,10.1216,71.1200,-22.9600,-28.6300,1000.3868,2.1470,-3.9929,8.6958,1590565021,V
0,2312164,1.5194,-5.0177,8.6477,72.0300,-46.1300,-59.0800,1000.3866,2.3976,-3.5919,8.8046,1590565021,V
0,2330585,3.4863,-2.6297,6.7502,41.5800,-1.3300,-107.3100,1000.3862,2.7579,-2.7682,8.9945,1590565021,V
0,2342440,4.4483,0.3470,6.5061,11.4100,43.0500,-77.7000,1000.3862,2.7587,-1.9683,9.2025,1590565021,V
0,2342627,1.3328,1.6319,10.6050,32.1300,106.6800,1.3300,1000.3851,1.4031,-0.9419,9.6599,1590565022,V
0,2341094,-3.7639,-2.7637,13.4859,15.4700,51.0300,2.2400,1000.3843,0.3756,-0.6351,9.7789,1590565022,V
0,2335754,0.5288,0.7561,9.7412,7.4900,34.2300,-9.8000,1000.3834,0.1628,-0.3032,9.8006,1590565022,V
0,2331181,1.0122,-2.1990,11.4353,-43.1200,-28.7700,5.3200,1000.3825,0.9690,-0.9124,9.7159,1590565022,V
0,2333058,-0.3972,0.2800,10.4447,-43.6100,-81.0600,33.6000,1000.3819,1.7339,-1.2610,9.5694,1590565022,V
0,2338254,0.9619,-1.6534,7.5063,-70.7000,-77.4200,63.7000,1000.3804,2.6205,-2.3171,9.1616,1590565022,V
0,2343406,2.3737,-3.8405,8.9013,-21.9800,-4.0600,33.1800,1000.3787,2.5973,-2.8360,9.0212,1590565022,V
0,2348375,1.9860,-3.2327,8.2433,-21.9100,-15.0500,14.6300,1000.3774,2.6517,-3.2238,8.8739,1590565022,V
0,2351539,3.0293,-4.2520,8.6166,-38.0800,-15.0500,22.7500,1000.3766,2.8648,-3.8227,8.5645,1590565022,V
0,2350552,2.3928,-4.9005,8.7099,-20.4400,5.3200,0.4900,1000.3754,2.7537,-4.1161,8.4644,1590565022,V
0,2347726,2.2325,-4.4913,8.4945,-12.3900,7.7000,-3.4300,1000.3748,2.6222,-4.2274,8.4513,1590565023,V
0,2345028,2.0339,-4.7785,8.8223,-11.5500,2.8700,-1.8900,1000.3752,2.4888,-4.3556,8.4265,1590565023,V
76,2342554,1.7444,-4.3214,8.5472,-8.4000,-9.0300,8.1200,1000.3757,2.3891,-4.4943,8.3824,1590565023,V
76,2340122,2.5555,-5.1446,8.1619,-15.1900,-8.8900,16.5200,1000.3765,2.4448,-4.8343,8.1745,1590565023,V
76,2339449,2.1176,-5.6925,8.3486,-6.6500,-18.9700,11.7600,1000.3770,2.4520,-5.1471,7.9790,1590565023,V
76,2340841,2.2229,-4.9053,7.6451,4.8300,-15.6100,17.5000,1000.3774,2.4603,-5.2808,7.8886,1590565023,V
76,2343375,1.7396,-5.0034,7.7862,7.0000,2.4500,29.0500,1000.3777,2.2050,-5.3773,7.8989,1590565023,V
76,2341794,1.1414,-4.8718,7.9513,-15.5400,22.6800,47.1100,1000.3790,1.6989,-5.6317,7.8465,1590565023,V
76,2338231,1.1581,-6.1950,6.2309,-77.2800,29.0500,51.3100,1000.3800,1.2544,-6.6255,7.1204,1590565023,V
76,2335504,0.3302,-7.6187,7.1426,-51.0300,37.9400,54.6700,1000.3810,0.6064,-7.3980,6.4088,1590565023,V
76,2332963,-1.1581,-8.7386,8.3079,-19.3900,16.5900,33.6700,1000.3823,0.2219,-3.3552,9.2122,1590565024,V
76,2331710,0.3039,-9.4110,4.8383,-28.4200,24.2900,-13.0200,1000.3838,0.1432,-7.2807,6.5682,1590565024,V
76,2328302,-0.7083,-7.7695,5.3791,7.9100,48.7200,-35.9100,1000.3857,-0.2610,-3.9275,8.9821,1590565024,V
76,2324760,-1.5410,-7.4489,6.3410,-34.5800,20.5100,-26.6000,1000.3869,-0.5422,-4.2687,8.8122,1590565024,V
76,2320934,-2.0243,-7.4680,5.5250,19.5300,9.9400,-11.4100,1000.3888,-0.4424,-8.8651,4.1694,1590565024,V
76,2314271,-1.9502,-8.0207,5.8481,-11.7600,-7.0700,0.3500,1000.3913,-0.7278,-8.6031,4.6506,1590565024,V
76,2308565,-1.4548,-7.9131,5.5801,-10.3600,-19.5300,17.7100,1000.3934,-0.9405,-8.2359,5.2398,1590565024,V
75,2304176,-1.0959,-8.2098,5.1374,-20.0900,-26.4600,25.6200,1000.3952,-1.0371,-7.9102,5.7029,1590565024,V
76,2300478,-0.9571,-8.9468,4.4746,-4.8300,-27.7900,23.5900,1000.3969,-1.0554,-7.6680,6.0215,1590565024,V
76,2297108,-1.4022,-8.6812,4.4530,-1.1900,-23.8000,12.7400,1000.3979,-1.1204,-7.6481,6.0350,1590565024,V
75,2294117,-1.3137,-8.3462,4.2353,-1.5400,-19.4600,13.3700,1000.4001,-1.1892,-7.6773,5.9846,1590565025,V
75,2291656,-1.5840,-8.4491,4.6445,-3.2200,-14.6300,18.0600,1000.4029,-1.3298,-7.6969,5.9295,1590565025,V
75,2288394,-1.1486,-8.4778,4.6110,-5.4600,-7.9800,21.7700,1000.4062,-1.4004,-7.7087,5.8979,1590565025,V
75,2282338,-1.4836,-8.6620,4.6684,-1.4700,-4.2700,17.8500,1000.4085,-1.5163,-7.7800,5.7743,1590565025,V
75,2276922,-1.3711,-8.6213,4.5440,-3.3600,-1.8200,10.0800,1000.4109,-1.5552,-7.9047,5.5917,1590565025,V
75,2273121,-1.6534,-8.4299,4.6995,5.8800,7.0700,-0.4200,1000.4136,-1.6104,-8.0464,5.3696,1590565025,V
75,2270012,-1.7611,-8.4778,4.7402,2.1700,9.6600,-4.5500,1000.4156,-1.6479,-8.1969,5.1250,1590565025,V
75,2267356,-2.1655,-8.4921,5.0967,5.6000,6.8600,-8.3300,1000.4174,-1.7073,-8.2589,5.0045,1590565025,V
75,2265307,-2.1511,-7.9753,5.4748,-2.0300,-8.3300,-3.5000,1000.4185,-1.7390,-8.1928,5.1014,1590565025,V
75,2263238,-1.9262,-8.0016,5.3073,-4.9000,-27.9300,8.1200,1000.4188,-1.7299,-8.0300,5.3569,1590565025,V
75,2260780,-1.5338,-8.1500,4.8215,-2.3100,-29.8900,12.8800,1000.4187,-1.6704,-7.8887,5.5810,1590565026,V
75,2255218,-1.2969,-8.6333,4.2090,-5.6000,-18.9700,9.8700,1000.4193,-1.6032,-7.9427,5.5239,1590565026,V
75,2250123,-0.9978,-8.4156,3.6993,-11.4800,-1.1200,-4.6200,1000.4202,-1.4755,-8.2303,5.1240,1590565026,V
75,2246008,-1.1725,-9.3583,3.6443,-20.5100,22.8200,-5.9500,1000.4205,-1.4350,-8.6376,4.4162,1590565026,V
75,2242395,-1.6798,-9.8441,3.9003,0.6300,34.3700,-22.6800,1000.4208,-1.3743,-8.9233,3.8284,1590565026,V
75,2239619,-2.0841,-9.0066,4.1563,1.1200,24.4300,-32.5500,1000.4207,-1.3028,-9.0634,3.5111,1590565026,V
75,2237300,-1.9932,-8.5041,4.1420,1.7500,9.1700,-20.1600,1000.4214,-1.3128,-9.0716,3.4861,1590565026,V
75,2235134,-1.4477,-8.3749,3.9027,10.7100,2.9400,-1.5400,1000.4220,-1.3684,-8.9935,3.6627,1590565026,V
75,2232284,-1.3304,-9.1597,3.5438,14.7000,-2.1000,8.3300,1000.4233,-1.4390,-8.9142,3.8259,1590565026,V
75,2226737,-1.4501,-9.2842,3.6347,-1.4000,3.8500,13.7200,1000.4260,-1.5470,-8.8829,3.8564,1590565026,V
75,2221768,-0.5934,-8.4467,4.5368,13.0200,37.1000,8.8900,1000.4285,-1.5413,-8.8178,4.0052,1590565027,V
75,2218538,-2.1129,-8.3031,5.7547,52.9200,37.3800,-6.3000,1000.4305,-1.7847,-8.5116,4.5318,1590565027,V
75,2216687,-2.5627,-6.9176,6.7023,25.9000,21.7000,-6.0900,1000.4316,-2.0445,-8.1536,5.0506,1590565027,V
75,2215598,-2.3234,-6.1831,6.9416,30.3800,16.5900,0.4200,1000.4326,-2.2624,-7.7061,5.6275,1590565027,V
75,2214900,-2.1607,-6.7932,7.0564,14.5600,17.1500,0.7700,1000.4324,-2.3414,-7.4796,5.8944,1590565027,V
75,2214246,-1.7300,-7.2144,6.6257,16.4500,17.1500,-15.8900,1000.4311,-2.2042,-7.4853,5.9399,1590565027,V
75,2213739,-2.2373,-6.9942,6.0969,12.2500,15.7500,-32.2000,1000.4298,-2.1009,-7.5980,5.8333,1590565027,V
75,2210728,-2.7326,-6.5827,5.9581,-1.1900,27.9300,-29.4700,1000.4288,-2.1927,-7.6945,5.6707,1590565027,V
75,2207906,-3.2279,-5.8481,5.7787,-6.0900,32.6200,-9.6600,1000.4276,-2.5631,-7.5789,5.6711,1590565027,V
74,2206747,-3.4863,-5.1374,4.8909,-13.3700,47.6000,44.2400,1000.4271,-3.2944,-7.3213,5.6317,1590565027,V
75,2206733,-3.7831,-5.6160,4.3908,38.4300,59.6400,96.1800,1000.4265,-4.4089,-6.5520,5.8140,1590565028,V
75,2206354,-7.3220,-4.4004,5.0776,43.1900,101.3600,162.6800,1000.4266,-6.3741,-5.0720,5.4604,1590565028,V
75,2206692,-11.3731,-4.6947,5.1733,-21.8400,89.7400,167.3700,1000.4266,-8.0361,-3.7203,4.2132,1590565028,V
75,2208920,-11.2774,-4.8790,4.3741,-25.9000,40.6000,92.8900,1000.4271,-8.7240,-2.9366,3.3821,1590565028,V
75,2212215,-9.1071,-3.3739,3.5605,0.0700,-3.9200,7.3500,1000.4275,-8.7203,-2.9432,3.3861,1590565028,V
75,2210049,-8.6644,-3.3739,3.3356,-41.1600,-25.4100,-5.2500,1000.4286,-8.5635,-3.2868,3.4690,1590565028,V
75,2205344,-9.7268,-3.1155,3.1298,-16.5200,-29.4700,-22.6100,1000.4299,-8.4186,-3.5260,3.5867,1590565028,V
76,2202365,-9.1334,-2.9575,3.5151,-0.3500,-14.3500,-39.1300,1000.4316,-8.2645,-3.7126,3.7529,1590565028,V
75,2200994,-8.7625,-1.8138,4.0869,46.9000,-2.3100,-56.7000,1000.4325,-8.1145,-3.5572,4.2037,1590565028,V
75,2199724,-8.9659,-0.8758,4.3860,23.3800,-18.4100,-43.8900,1000.4337,-7.9637,-3.2495,4.7107,1590565028,V
75,2198303,-8.9611,-1.5075,4.5033,2.7300,-26.0400,-41.5100,1000.4358,-7.7742,-3.1774,5.0633,1590565029,V
76,2198320,-7.0708,-1.8497,4.4865,-9.7300,-8.2600,-18.6900,1000.4380,-7.6818,-3.2302,5.1697,1590565029,V
75,2198254,-7.2742,-2.0052,5.2211,7.5600,27.9300,22.0500,1000.4399,-7.9376,-2.8236,5.0192,1590565029,V
75,2196054,-7.4728,-1.9525,5.4628,21.6300,40.3200,39.6200,1000.4403,-8.2547,-2.2984,4.7695,1590565029,V
75,2192688,-8.2241,-2.0267,5.0225,8.1200,37.5200,53.9000,1000.4406,-8.6704,-1.8011,4.2131,1590565029,V
76,2189865,-9.6550,-2.4790,4.6253,0.7700,19.3900,43.3300,1000.4416,-8.9823,-1.4534,3.6575,1590565029,V
75,2188706,-9.3320,-2.4670,3.7711,-16.3800,-9.3800,-6.0900,1000.4420,-8.9066,-1.7316,3.7209,1590565029,V
75,2187480,-9.3105,-2.0315,3.7089,-28.2100,-14.8400,-41.2300,1000.4426,-8.6981,-2.1886,3.9652,1590565029,V
75,2186372,-8.4371,-1.8975,3.5677,-1.0500,-5.7400,-39.4100,1000.4425,-8.5263,-2.4511,4.1791,1590565029,V
76,2184979,-8.8295,-1.6152,3.5677,-16.7300,-0.5600,-5.9500,1000.4427,-8.6069,-2.3804,4.0529,1590565029,V
75,2183721,-8.6596,-2.0028,3.4098,-2.8700,12.8800,13.5100,1000.4427,-8.7859,-2.2031,3.7582,1590565030,V
76,2180793,-8.9324,-2.0650,3.4002,9.9400,24.2200,35.9800,1000.4438,-9.0495,-1.8264,3.3076,1590565030,V
75,2176844,-9.4205,-2.4957,3.3667,7.7700,22.6100,41.1600,1000.4451,-9.2537,-1.5338,2.8612,1590565030,V
75,2174501,-9.3057,-2.5723,3.2495,11.6200,15.0500,17.7100,1000.4464,-9.2983,-1.5152,2.7233,1590565030,V
75,2172843,-9.0855,-2.4383,3.2830,13.5800,6.5100,-6.5100,1000.4481,-9.2228,-1.7037,2.8649,1590565030,V
75,2170909,-9.5234,-2.2660,3.1370,14.3500,-3.4300,-19.1800,1000.4496,-9.1074,-1.9288,3.0831,1590565030,V
75,2169418,-9.6646,-2.1607,3.0556,11.0600,-14.0700,-25.1300,1000.4510,-8.9640,-2.1574,3.3410,1590565030,V
75,2168280,-9.3344,-2.0554,3.0030,17.4300,-16.5900,-25.4100,1000.4526,-8.8232,-2.3192,3.5975,1590565030,V
75,2167190,-8.8080,-1.9214,3.0293,21.5600,-14.4200,-13.2300,1000.4540,-8.7452,-2.3285,3.7776,1590565030,V
75,2164678,-8.8654,-2.1440,2.9097,11.5500,-13.9300,2.8700,1000.4554,-8.7695,-2.2839,3.7484,1590565030,V
75,2160729,-9.2818,-2.5627,2.7876,8.5400,-3.5000,5.4600,1000.4556,-8.8502,-2.2822,3.5547,1590565031,V
75,2158277,-8.5567,-2.4933,3.2901,20.4400,15.5400,-3.0800,1000.4559,-8.8774,-2.2827,3.4860,1590565031,V
75,2157156,-9.0712,-1.7013,4.5703,21.9800,14.6300,-7.6300,1000.4568,-8.8348,-2.1397,3.6794,1590565031,V
75,2156583,-8.7051,-1.3376,4.6229,-3.4300,-3.9200,-14.3500,1000.4577,-8.7162,-2.1045,3.9711,1590565031,V
75,2155268,-8.9204,-1.2132,4.3430,1.1200,-13.3000,-6.3700,1000.4583,-8.6343,-1.9844,4.2049,1590565031,V
75,2153974,-8.6931,-1.5673,3.8477,-11.2000,-14.4200,1.8200,1000.4575,-8.6457,-1.9422,4.2011,1590565031,V
75,2152684,-8.6237,-1.5003,3.6610,-12.1100,-2.5200,10.1500,1000.4565,-8.7582,-1.8241,4.0171,1590565031,V
75,2150546,-8.7888,-1.4620,3.9314,-13.5800,10.5700,15.4700,1000.4562,-8.9097,-1.6526,3.7493,1590565031,V
75,2147314,-8.7482,-1.5218,4.3525,-9.4500,17.7100,20.5800,1000.4556,-9.0402,-1.4598,3.5092,1590565031,V
75,2145019,-8.8726,-1.4213,4.6038,-8.4700,13.5800,25.4800,1000.4549,-9.1433,-1.2438,3.3201,1590565031,V
75,2143725,-9.0736,-1.8257,4.4865,-9.5200,13.5800,17.4300,1000.4539,-9.1841,-1.2059,3.2199,1590565032,V
75,2142581,-8.9276,-1.6654,3.9577,-10.0800,-7.3500,1.1900,1000.4525,-9.1090,-1.3231,3.3832,1590565032,V
75,2141086,-9.0257,-1.6463,3.9984,-7.1400,-5.4600,-8.8200,1000.4526,-9.0084,-1.4797,3.5820,1590565032,V
75,2140321,-8.2887,-1.3998,4.1898,12.0400,0.7000,-13.5100,1000.4528,-8.8710,-1.5562,3.8800,1590565032,V
75,2139393,-8.5496,-1.3256,4.4339,14.4200,6.7200,-0.7700,1000.4535,-8.8263,-1.4776,4.0105,1590565032,V
75,2137710,-9.0497,-1.6032,4.1157,7.4900,-1.7500,-1.6800,1000.4549,-8.7936,-1.4906,4.0769,1590565032,V
75,2134425,-9.3942,-1.8377,3.9601,0.9100,-5.3200,-16.8700,1000.4556,-8.7043,-1.6705,4.1970,1590565032,V
75,2132193,-9.2889,-1.3854,4.0630,-3.0800,-8.0500,-25.2700,1000.4570,-8.5811,-1.8017,4.3919,1590565032,V
75,2130891,-8.6309,-1.3567,3.7711,-11.0600,-11.9700,-19.2500,1000.4578,-8.5149,-1.9024,4.4774,1590565032,V
75,2129261,-8.5783,-1.4237,3.7926,-11.6200,-0.9800,5.0400,1000.4590,-8.6323,-1.8151,4.2847,1590565032,V
75,2128246,-8.6572,-1.7061,3.6634,-11.0600,7.8400,25.1300,1000.4603,-8.8603,-1.6335,3.8726,1590565033,V
75,2127224,-8.9731,-2.0100,3.6562,-16.5200,9.3100,31.2900,1000.4606,-9.0587,-1.4828,3.4512,1590565033,V
75,2126533,-8.8893,-2.1200,3.6132,-20.0900,5.8800,21.7700,1000.4608,-9.1415,-1.4683,3.2322,1590565033,V
75,2125195,-8.7649,-2.0578,3.5605,-24.8500,2.5900,11.2700,1000.4611,-9.1536,-1.5529,3.1575,1590565033,V
75,2121678,-9.2459,-2.0315,3.5821,-28.0000,-0.2100,6.5800,1000.4616,-9.1509,-1.6491,3.1163,1590565033,V
74,2118673,-9.5689,-1.9573,3.6897,-31.1500,-4.6200,4.4800,1000.4625,-9.1337,-1.7355,3.1199,1590565033,V
75,2117065,-8.4156,-1.9214,3.5438,-21.0000,-1.8900,4.3400,1000.4634,-9.0998,-1.8160,3.1729,1590565033,V
74,2115372,-8.9133,-2.1033,3.5462,-11.4800,1.8200,12.0400,1000.4645,-9.1172,-1.7989,3.1323,1590565033,V
74,2113611,-8.9779,-2.3689,3.4385,-6.5800,3.5000,2.9400,1000.4655,-9.0988,-1.8938,3.1298,1590565033,V
74,2112471,-8.8534,-2.2660,3.6227,0.1400,3.6400,-1.8900,1000.4660,-9.0556,-1.9759,3.2033,1590565033,V
74,2111182,-8.9850,-2.3785,3.5988,-2.1000,-1.0500,-4.9700,1000.4665,-8.9932,-2.0982,3.3002,1590565034,V
74,2109810,-9.1549,-2.4263,3.4744,7.2800,0.5600,-10.7800,1000.4665,-8.9314,-2.2169,3.3889,1590565034,V
74,2106743,-9.0927,-2.2540,3.7041,21.2100,7.0700,-14.0000,1000.4672,-8.8719,-2.2548,3.5179,1590565034,V
74,2104445,-8.4826,-1.8018,3.5366,30.1700,6.8600,-14.7000,1000.4686,-8.8089,-2.2084,3.7008,1590565034,V
74,2102503,-9.4301,-1.8497,3.3691,20.5800,3.0100,-5.4600,1000.4689,-8.8293,-2.1135,3.7077,1590565034,V
74,2101018,-8.7194,-2.1009,3.0772,14.2800,7.0700,-7.3500,1000.4688,-8.8526,-2.1381,3.6375,1590565034,V
74,2099663,-8.8463,-1.8305,3.3380,17.5700,10.4300,-2.8000,1000.4681,-8.8894,-2.0494,3.5984,1590565034,V
74,2098454,-9.3559,-2.4335,3.4720,10.9900,3.3600,-12.8800,1000.4681,-8.8500,-2.1684,3.6257,1590565034,V
74,2097628,-8.8726,-2.4096,3.5509,0.5600,-4.4100,-20.3700,1000.4679,-8.7462,-2.3686,3.7501,1590565034,V
74,2096693,-8.8032,-2.5747,3.4935,-1.6100,-8.1200,-19.6700,1000.4686,-8.6476,-2.5700,3.8451,1590565034,V
74,2094335,-8.5902,-2.6584,3.2495,-4.5500,-6.8600,-14.2800,1000.4692,-8.6041,-2.7313,3.8315,1590565035,V
74,2092207,-8.4371,-2.9192,3.1872,-0.4200,3.8500,1.1200,1000.4696,-8.6581,-2.7732,3.6765,1590565035,V
74,2090730,-9.0999,-2.7182,3.3236,0.5600,10.2900,17.4300,1000.4698,-8.8145,-2.5936,3.4277,1590565035,V
74,2089906,-8.8511,-2.7470,3.2375,-2.5900,10.4300,25.8300,1000.4702,-8.9615,-2.4017,3.1770,1590565035,V
74,2088974,-9.0401,-2.7517,3.2758,1.9600,9.3800,30.9400,1000.4710,-9.0880,-2.1825,2.9691,1590565035,V
74,2088056,-9.3655,-3.1442,3.3380,0.7700,-0.7000,17.4300,1000.4706,-9.0945,-2.1941,2.9403,1590565035,V
73,2087211,-9.3153,-3.2040,3.4385,-11.1300,-16.3100,-14.7700,1000.4707,-8.9211,-2.5509,3.1744,1590565035,V
74,2086458,-8.8678,-3.1992,3.6682,-15.4000,-23.7300,-30.3800,1000.4706,-8.6492,-3.0079,3.5093,1590565035,V
73,2084644,-8.7864,-2.7781,3.7998,-13.1600,-25.9000,-32.9000,1000.4703,-8.4054,-3.3049,3.8206,1590565035,V
74,2082346,-8.7075,-2.2660,3.9362,-8.8200,-22.6100,-28.4200,1000.4705,-8.2509,-3.3760,4.0860,1590565035,V
73,2081226,-8.2935,-1.8473,4.0702,-10.9900,-15.0500,-9.6600,1000.4710,-8.2376,-3.2120,4.2420,1590565036,V
74,2080582,-7.9513,-1.6032,3.9123,-14.9800,-3.5000,27.8600,1000.4706,-8.4567,-2.7622,4.1262,1590565036,V
73,2079898,-8.1547,-1.8497,3.6514,-15.6800,18.9700,66.7100,1000.4702,-8.8893,-2.0931,3.5734,1590565036,V
74,2079023,-9.5450,-2.0674,3.8261,-0.6300,44.1700,91.2100,1000.4703,-9.3617,-1.1885,2.6676,1590565036,V
73,2078659,-9.8441,-1.8066,4.3908,0.9800,29.1200,62.8600,1000.4699,-9.5756,-0.5500,2.0433,1590565036,V
74,2079205,-8.9635,-1.5218,4.7665,2.1700,4.8300,6.9300,1000.4690,-9.4975,-0.6931,2.3425,1590565036,V
73,2078710,-8.5113,-1.1079,4.3765,-8.0500,-19.8800,-17.7100,1000.4688,-9.2931,-1.0169,2.9622,1590565036,V
73,2076312,-9.2028,-1.0361,3.9099,-24.3600,-35.5600,-39.0600,1000.4686,-8.9897,-1.4600,3.6365,1590565036,V
73,2074803,-9.2363,-1.0816,3.6036,-28.2100,-37.6600,-57.6800,1000.4676,-8.6281,-1.9540,4.2318,1590565036,V
74,2073927,-8.9755,-0.8566,3.7137,-22.1200,-25.2700,-50.3300,1000.4677,-8.3875,-2.1877,4.5863,1590565036,V
73,2073801,-8.3629,-0.7250,3.7783,-13.3700,-4.5500,-18.4100,1000.4673,-8.4048,-2.0703,4.6091,1590565037,V
73,2073565,-8.4754,-0.8830,3.8285,-33.2500,7.7000,48.0200,1000.4673,-8.8379,-1.5596,3.9535,1590565037,V
73,2073054,-9.5641,-1.6223,3.4193,-44.3800,13.2300,81.9000,1000.4665,-9.2986,-0.9642,2.9627,1590565037,V
74,2072526,-9.6933,-2.1823,3.1944,-39.0600,13.6500,88.5500,1000.4656,-9.5333,-0.4692,2.2507,1590565037,V
73,2071617,-10.2676,-2.6824,2.9767,-62.7200,-1.4000,72.0300,1000.4636,-9.6106,-0.1608,1.9446,1590565037,V
73,2070307,-8.7506,-3.0772,2.3569,-77.9100,-5.1100,34.3700,1000.4622,-9.5593,-0.7033,2.0728,1590565037,V
73,2068444,-9.1956,-3.2399,2.3258,-65.3100,8.2600,24.7100,1000.4599,-9.5301,-1.1654,1.9973,1590565037,V
73,2067392,-9.5593,-2.9145,2.7326,-62.5100,19.5300,-3.5700,1000.4595,-9.4809,-1.6312,1.9034,1590565037,V
73,2066665,-9.5163,-2.2062,3.8309,-49.0000,24.0800,-19.6000,1000.4590,-9.4180,-1.9168,1.9489,1590565037,V
73,2066390,-8.8080,-1.5553,4.5703,-24.6400,14.0700,-9.1000,1000.4598,-9.3554,-1.9548,2.1967,1590565037,V
73,2065791,-8.9468,-1.5984,4.2449,-22.4000,-6.6500,26.8100,1000.4611,-9.3419,-1.7508,2.4153,1590565038,V
74,2064857,-9.5282,-2.6249,3.6443,-6.5100,-6.2300,42.1400,1000.4628,-9.3634,-1.5729,2.4543,1590565038,V
73,2064379,-9.0999,-2.6010,3.6443,48.6500,-3.0800,14.4900,1000.4648,-9.3152,-1.5301,2.6565,1590565038,V
74,2062664,-9.5880,-1.5290,3.5605,6.8600,-33.5300,-25.3400,1000.4658,-9.1013,-1.7941,3.1808,1590565038,V
74,2061224,-10.3490,-1.8377,3.2375,-11.5500,-47.3900,-72.9400,1000.4666,-8.6110,-2.5684,3.9274,1590565038,V
74,2060499,-9.7484,-0.9595,3.2806,12.4600,-50.8200,-91.2800,1000.4669,-8.1084,-2.9169,4.6814,1590565038,V
74,2060415,-8.4897,-0.5575,3.4457,4.4800,-38.3600,-67.4100,1000.4664,-7.7806,-2.9023,5.2163,1590565038,V
74,2060853,-6.8507,-0.4666,3.8333,5.7400,2.3100,-2.9400,1000.4659,-7.8480,-2.6224,5.2633,1590565038,V
73,2061151,-8.2959,-0.5049,4.3478,-11.7600,29.8900,74.2700,1000.4654,-8.5747,-1.7127,4.4397,1590565038,V
74,2060793,-10.2293,-0.7633,4.5679,-40.1100,26.3900,102.5500,1000.4645,-9.3227,-0.7442,2.9503,1590565038,V
74,2060704,-9.7579,-1.3472,3.7878,-73.4300,3.8500,79.8700,1000.4642,-9.5279,-0.3027,2.3015,1590565039,V
74,2059672,-8.5543,-1.9047,2.9719,-80.0100,3.1500,55.0200,1000.4642,-9.5585,-0.3457,2.1647,1590565039,V
73,2057644,-8.5926,-2.2636,2.9934,-71.6100,27.9300,50.1200,1000.4642,-9.6132,-0.3937,1.8978,1590565039,V
73,2056321,-8.6381,-2.4215,4.0128,-30.6600,52.5700,33.6000,1000.4641,-9.6606,-0.4109,1.6352,1590565039,V
73,2055365,-10.8419,-1.6893,6.1232,-5.3900,41.0900,1.5400,1000.4641,-9.6880,-0.3976,1.4681,1590565039,V
73,2055937,-8.4251,-1.1007,5.0154,-50.7500,-17.2900,-25.2000,1000.4638,-9.4918,-1.0100,2.2486,1590565039,V
73,2054868,-10.2102,-2.0219,4.2975,-24.7100,-51.0300,-39.2000,1000.4639,-9.1573,-1.7177,3.0599,1590565039,V
73,2054814,-9.0209,-2.2158,2.8451,1.8900,-45.6400,-46.2700,1000.4635,-8.8183,-2.3199,3.6091,1590565039,V
73,2053580,-9.5067,-1.7563,2.5890,4.9000,-36.7500,-24.2900,1000.4631,-8.6901,-2.4648,3.8180,1590565039,V
73,2052130,-8.4179,-2.1464,2.1248,-21.9100,-19.5300,-15.3300,1000.4633,-8.6776,-2.7050,3.6813,1590565039,V
73,2050313,-8.4562,-1.9406,2.4694,-16.0300,7.5600,8.5400,1000.4637,-8.8553,-2.5468,3.3568,1590565040,V
73,2049102,-9.0066,-1.9095,3.1968,-12.6700,25.3400,41.5800,1000.4647,-9.1418,-2.0317,2.9103,1590565040,V
73,2047873,-11.6291,-2.2421,3.7543,-24.0100,22.3300,58.3100,1000.4655,-9.4100,-1.4327,2.3602,1590565040,V
73,2047456,-9.4062,-2.2732,4.1874,-39.4800,23.6600,50.2600,1000.4651,-9.5003,-1.1642,2.1354,1590565040,V
73,2047606,-7.3244,-1.1892,3.9745,-16.8000,-2.4500,20.4400,1000.4651,-9.4860,-1.0753,2.2429,1590565040,V
73,2046852,-10.5332,-1.8832,4.2712,-53.9000,-14.9800,-11.8300,1000.4647,-9.3638,-1.4646,2.5190,1590565040,V
73,2047016,-8.4514,-0.7442,4.4052,-15.0500,-20.0900,-33.6700,1000.4639,-9.1516,-1.7196,3.0760,1590565040,V
73,2046459,-7.7073,-0.5623,3.9553,-32.8300,-26.3900,-21.4900,1000.4632,-8.9621,-1.9631,3.4638,1590565040,V
73,2045291,-7.2981,-1.1629,3.9386,-26.1800,12.4600,16.5200,1000.4632,-9.0620,-1.7896,3.2937,1590565040,V
73,2044764,-8.0877,-1.0744,4.0822,-11.6200,32.5500,40.7400,1000.4637,-9.2852,-1.2640,2.8910,1590565040,V
73,2043175,-11.1003,-1.9430,4.0822,-31.0800,29.4000,62.8600,1000.4646,-9.5330,-0.6841,2.1965,1590565041,V
73,2042722,-10.8227,-2.0148,3.7878,20.0900,12.0400,-2.9400,1000.4650,-9.5281,-0.7497,2.1965,1590565041,V
73,2043214,-8.1835,-1.6008,2.6130,8.9600,-6.1600,-31.0100,1000.4661,-9.3884,-1.1726,2.5793,1590565041,V
73,2041893,-9.8034,-1.1868,1.8042,-33.6000,-31.5700,-0.9800,1000.4678,-9.3459,-1.3358,2.6532,1590565041,V
73,2041593,-8.7984,-2.3976,1.5697,-41.5100,-14.4900,-19.8800,1000.4689,-9.2441,-1.9187,2.6526,1590565041,V
73,2040129,-8.8941,-1.5721,2.1894,-35.4900,5.3900,23.4500,1000.4703,-9.3558,-1.7241,2.3807,1590565041,V
73,2038790,-9.1262,-1.9358,2.3354,-29.6800,5.1800,40.8800,1000.4728,-9.4607,-1.4669,2.1247,1590565041,V
73,2037214,-10.8467,-2.2708,2.7924,-48.9300,11.2700,45.8500,1000.4740,-9.5696,-1.1537,1.8059,1590565041,V
73,2037132,-9.0832,-1.2084,2.7182,-31.9900,-9.1000,2.6600,1000.4748,-9.5259,-1.2428,1.9706,1590565041,V
73,2036888,-8.6740,-1.3256,3.2614,-64.1200,-6.4400,-24.4300,1000.4744,-9.3930,-1.6746,2.2665,1590565041,V
73,2036594,-8.6022,-0.3805,4.1085,-3.2900,5.9500,-12.9500,1000.4742,-9.3565,-1.5253,2.5100,1590565042,V
73,2036185,-8.6859,-0.3302,4.0415,-18.0600,-2.5900,7.1400,1000.4738,-9.3538,-1.2827,2.6518,1590565042,V
73,2036029,-8.4754,-1.6032,2.8451,-17.2900,3.7100,8.1900,1000.4727,-9.3571,-1.3302,2.6164,1590565042,V
73,2034506,-8.2505,-1.7228,2.9527,-22.6800,14.8400,16.3100,1000.4711,-9.3981,-1.3136,2.4740,1590565042,V
73,2032012,-11.1434,-2.0746,3.3093,-19.3900,21.2100,22.6800,1000.4702,-9.5073,-1.1172,2.1291,1590565042,V
73,2030867,-10.4590,-1.8497,3.2064,-34.5800,-8.7500,-12.8100,1000.4697,-9.4241,-1.4104,2.3168,1590565042,V
73,2030961,-8.5352,-1.5218,2.2373,-23.5200,-28.9100,-38.5700,1000.4686,-9.2182,-1.9311,2.7322,1590565042,V
73,2030173,-11.6243,-1.2108,0.9858,-47.0400,-42.9100,-14.2800,1000.4677,-9.0936,-2.2877,2.8712,1590565042,V
73,2029768,-8.2289,-1.8568,0.9715,-73.5700,-37.8700,-23.9400,1000.4675,-8.8749,-2.9733,2.9267,1590565042,V
73,2028994,-8.6859,-2.1200,1.3639,-60.4800,-17.7800,39.7600,1000.4668,-9.0104,-2.8738,2.5931,1590565042,V
73,2027818,-10.2891,-2.5196,1.5290,-82.6700,-3.5700,75.6000,1000.4663,-9.2213,-2.5557,2.1464,1590565043,V
73,2026313,-9.5474,-2.6752,1.7755,-67.6900,-4.6900,74.8300,1000.4657,-9.3428,-2.2914,1.9057,1590565043,V
73,2024766,-10.4710,-2.9001,1.3017,-83.6500,-13.3700,84.3500,1000.4650,-9.3788,-2.2714,1.7462,1590565043,V
73,2022867,-8.4395,-2.8211,2.0148,-129.4300,-4.4800,45.2900,1000.4643,-9.1783,-3.0632,1.5957,1590565043,V
73,2022707,-10.1743,-2.4550,3.2758,-5.4600,10.0800,-15.1900,1000.4645,-9.2397,-2.8476,1.6402,1590565043,V
73,2023938,-8.4012,-0.4116,4.7737,-57.4700,-17.2200,-47.2500,1000.4653,-9.1039,-2.9279,2.1717,1590565043,V
73,2024449,-8.9850,0.0574,5.1039,24.0800,-16.3100,-21.3500,1000.4663,-9.1482,-2.2726,2.7049,1590565043,V
73,2026045,-8.4634,-0.0431,4.3621,-46.7600,-16.8700,13.2300,1000.4665,-9.1749,-1.8665,2.9169,1590565043,V
73,2025645,-8.2768,-1.7276,3.5462,-20.5100,-8.4000,30.0300,1000.4657,-9.2055,-1.6728,2.9378,1590565043,V
73,2024167,-9.4875,-1.6439,3.5294,-19.3900,1.4700,35.2100,1000.4644,-9.3076,-1.3648,2.7706,1590565043,V
73,2023028,-9.3559,-2.0794,3.1537,-18.3400,-8.2600,0.2800,1000.4630,-9.2552,-1.5637,2.8403,1590565044,V
74,2022378,-9.5761,-1.6678,3.5797,-15.8200,-9.6600,-29.7500,1000.4615,-9.1204,-1.8711,3.0801,1590565044,V
74,2022717,-8.6237,-1.2132,3.5629,-3.7800,-7.5600,-22.2600,1000.4600,-9.0235,-1.9427,3.3126,1590565044,V
74,2022713,-8.6668,-1.5745,3.3739,-20.5100,-6.3700,-2.3100,1000.4590,-9.0062,-1.9611,3.3486,1590565044,V
74,2022872,-8.2193,-2.3880,3.3500,24.6400,16.7300,3.7800,1000.4577,-9.0276,-1.9452,3.3000,1590565044,V
74,2022620,-9.7914,-2.7063,3.9649,26.0400,11.4100,6.4400,1000.4557,-9.0602,-1.8482,3.2662,1590565044,V
74,2022628,-8.8223,-2.9169,3.5557,8.1200,-5.3900,-22.9600,1000.4536,-8.8754,-2.2261,3.5274,1590565044,V
74,2021810,-9.2243,-2.4957,3.5892,14.0000,-7.0700,-14.5600,1000.4520,-8.7755,-2.3515,3.6921,1590565044,V
74,2021295,-8.8630,-2.8379,3.3715,-1.2600,-15.4000,-18.2000,1000.4508,-8.6434,-2.6156,3.8238,1590565044,V
74,2020754,-9.1837,-2.8283,3.2351,-9.8000,-11.6200,-10.4300,1000.4498,-8.6121,-2.7754,3.7813,1590565044,V
74,2020527,-7.9370,-3.0341,3.2949,8.6800,11.8300,-1.1900,1000.4491,-8.6392,-2.8295,3.6782,1590565045,V
74,2020476,-8.8176,-2.7709,4.0487,40.1100,29.1900,7.1400,1000.4484,-8.7434,-2.5806,3.6143,1590565045,V
74,2020493,-9.1860,-2.6082,4.5033,23.6600,16.7300,1.2600,1000.4479,-8.7519,-2.4511,3.6834,1590565045,V
74,2020550,-8.6620,-2.0985,4.4459,38.0800,6.1600,-13.3700,1000.4469,-8.6254,-2.3688,4.0201,1590565045,V
74,2020403,-8.8487,-1.8712,4.3023,29.8900,-3.2200,-9.7300,1000.4453,-8.5183,-2.2557,4.3035,1590565045,V
74,2019777,-9.0712,-1.8688,4.1204,22.7500,-16.6600,-12.4600,1000.4437,-8.3871,-2.2077,4.5775,1590565045,V
74,2019266,-8.4945,-1.9023,3.8548,18.4100,-15.8900,-15.5400,1000.4420,-8.2726,-2.2272,4.7723,1590565045,V
74,2019215,-8.3653,-1.7180,3.8548,20.4400,-3.2900,-6.9300,1000.4404,-8.2697,-2.1350,4.8192,1590565045,V
74,2019123,-8.4036,-1.3926,3.9553,16.2400,7.0000,2.8700,1000.4389,-8.3676,-1.9319,4.7350,1590565045,V
74,2019103,-8.7458,-1.1629,4.2281,14.0700,16.0300,17.0100,1000.4379,-8.5606,-1.6150,4.5032,1590565045,V
74,2019261,-8.8487,-1.0696,4.3813,11.8300,18.4100,26.6000,1000.4363,-8.7900,-1.2714,4.1581,1590565046,V
74,2019372,-8.7194,-0.9811,4.2664,13.7200,20.7900,31.7800,1000.4352,-9.0320,-0.9281,3.7056,1590565046,V
74,2019033,-9.1502,-0.8231,4.1946,15.8200,16.8700,27.7200,1000.4352,-9.2211,-0.6377,3.2764,1590565046,V
74,2018282,-9.0209,-0.6867,4.0271,13.7200,5.1800,9.4500,1000.4348,-9.2317,-0.5416,3.2639,1590565046,V
74,2017889,-9.0832,-0.6556,3.7280,13.7200,0.5600,-3.0100,1000.4341,-9.1342,-0.5628,3.5242,1590565046,V
74,2017676,-9.2435,-0.5264,3.6084,17.0100,-1.3300,-15.7500,1000.4340,-8.8855,-0.6403,4.0999,1590565046,V
74,2017863,-8.9898,-0.2201,3.4744,17.7100,-1.9600,-23.5200,1000.4339,-8.4630,-0.6718,4.9089,1590565046,V
74,2018103,-9.1047,-0.2297,3.5031,15.3300,1.8900,-18.4100,1000.4341,-8.1358,-0.6466,5.4369,1590565046,V
74,2018411,-9.2794,-0.0646,3.4983,11.6900,3.0100,-8.1900,1000.4331,-7.8920,-0.5297,5.7970,1590565046,V
74,2018668,-9.3320,-0.2154,3.4816,5.4600,1.8200,-3.3600,1000.4321,-7.9285,-0.4750,5.7519,1590565046,V
74,2018647,-9.0903,-0.2847,3.4361,4.4800,3.2200,0.1400,1000.4305,-8.0885,-0.4354,5.5278,1590565047,V
74,2018185,-9.1286,-0.3948,3.5438,6.4400,6.3000,2.4500,1000.4293,-8.3045,-0.4058,5.2000,1590565047,V
74,2018002,-9.2937,-0.3613,3.6419,3.1500,3.2900,0.4900,1000.4286,-8.4839,-0.3920,4.9031,1590565047,V
74,2017971,-9.4229,-0.3063,3.6203,-2.0300,-4.1300,-6.4400,1000.4281,-8.5451,-0.4265,4.7927,1590565047,V
74,2018094,-9.1454,-0.2106,3.5007,-5.8800,-6.9300,-6.3000,1000.4278,-8.6007,-0.4454,4.6904,1590565047,V
74,2018220,-9.0616,-0.2967,3.4505,-4.4800,-1.8200,1.1900,1000.4286,-8.7906,-0.4235,4.3263,1590565047,V
74,2018468,-9.0449,-0.4331,3.5988,2.3800,6.5800,10.4300,1000.4288,-9.0496,-0.3431,3.7627,1590565047,V
74,2018931,-9.2315,-0.4953,3.7304,5.3900,7.9800,13.8600,1000.4291,-9.2778,-0.2481,3.1672,1590565047,V
74,2018643,-9.0760,-0.5432,3.5964,7.6300,9.3100,13.7200,1000.4289,-9.4303,-0.1753,2.6851,1590565047,V
74,2018008,-8.8176,-0.6054,3.3954,3.7800,10.3600,10.4300,1000.4280,-9.4903,-0.1659,2.4651,1590565047,V
74,2017314,-9.2267,-0.7370,3.2136,-1.5400,11.5500,9.3800,1000.4269,-9.5245,-0.1962,2.3271,1590565048,V
75,2016733,-10.3418,-0.8542,3.1801,-22.2600,1.1200,5.3200,1000.4258,-9.5452,-0.2493,2.2354,1590565048,V
74,2016736,-9.2889,-0.6197,3.4074,-7.4900,-2.8700,-28.3500,1000.4247,-9.2873,-0.5795,3.0952,1590565048,V
74,2017107,-8.3198,-0.1866,3.5294,-10.1500,-8.6800,-37.8700,1000.4251,-8.9363,-0.8274,3.9534,1590565048,V
74,2017209,-9.6598,-0.1220,3.5916,-12.9500,-7.9800,-30.4500,1000.4252,-8.7251,-0.9359,4.3780,1590565048,V
75,2017203,-9.8871,-0.2489,3.4792,-12.4600,-9.7300,-24.3600,1000.4251,-8.6188,-0.9989,4.5703,1590565048,V
75,2017055,-8.9587,-0.4666,3.0820,-17.7100,-8.5400,-11.2000,1000.4257,-8.7118,-1.0286,4.3838,1590565048,V
74,2016200,-8.3581,-1.1294,3.2901,-19.3900,18.0600,17.9900,1000.4252,-9.0649,-0.9662,3.6144,1590565048,V
74,2016129,-9.3918,-1.9047,3.6921,-1.6100,29.2600,32.7600,1000.4246,-9.3250,-0.8370,2.9178,1590565048,V
75,2015500,-8.8511,-2.7565,3.9745,-2.0300,23.8700,8.7500,1000.4243,-9.3003,-1.0866,2.9144,1590565048,V
75,2015351,-8.2528,-3.7878,3.5677,-53.6900,-10.3600,-37.2400,1000.4242,-8.9981,-2.0187,3.3362,1590565049,V
75,2014316,-8.4706,-4.9125,3.2112,-3.8500,-26.3200,-42.2800,1000.4243,-8.5916,-2.8951,3.7380,1590565049,V
75,2013846,-8.4156,-4.4865,3.4122,-15.6800,-39.2000,-61.3900,1000.4238,-8.0890,-3.7426,4.0904,1590565049,V
75,2014380,-6.9631,-3.4720,3.3930,-46.9000,-55.7200,-62.6500,1000.4249,-7.4687,-4.5533,4.4335,1590565049,V
75,2018971,-6.5037,-5.2259,4.3286,-116.2700,-61.1100,-60.9700,1000.4260,-6.6437,-5.7498,4.3555,1590565049,V
75,2025618,-7.9226,-6.1328,4.1420,-97.7900,-55.0200,-39.2700,1000.4272,-6.0135,-6.6093,4.0404,1590565049,V
75,2026489,-6.9368,-6.7597,3.2183,-53.6200,-38.4300,-13.6500,1000.4282,-5.7696,-7.0042,3.7180,1590565049,V
75,2027856,-7.1258,-7.1498,2.9480,-37.3800,-31.2900,-2.5900,1000.4295,-5.6808,-7.2134,3.4446,1590565049,V
75,2032172,-6.6090,-7.7886,1.7898,-3.7800,-13.3700,-6.3700,1000.4313,-5.6578,-7.3823,3.1083,1590565049,V
75,2037617,-5.2714,-7.7097,2.0100,11.1300,2.1700,-3.4300,1000.4327,-5.6295,-7.4712,2.9427,1590565049,V
75,2045959,-5.5298,-7.7504,2.6321,-14.4900,-3.7100,-4.7600,1000.4335,-5.4907,-7.6310,2.7911,1590565050,V
74,2053677,-5.8050,-8.2122,2.5292,3.4300,5.8800,-15.9600,1000.4342,-5.4112,-7.7239,2.6892,1590565050,V
75,2058887,-5.3934,-7.1713,3.2136,2.8000,7.4200,-6.9300,1000.4351,-5.4447,-7.6621,2.7962,1590565050,V
74,2063820,-4.6540,-8.0471,2.8259,-8.8900,0.7700,2.2400,1000.4359,-5.2790,-7.7922,2.7538,1590565050,V
74,2067620,-4.7569,-8.3773,2.6177,-10.2200,-4.1300,-7.0700,1000.4371,-5.0466,-7.9772,2.6583,1590565050,V
74,2073373,-4.8048,-8.8582,2.3091,26.1100,9.6600,-14.9800,1000.4381,-5.0097,-7.9913,2.6857,1590565050,V
74,2070175,-5.2403,-8.5041,2.9121,-30.5200,1.1200,-28.7700,1000.4390,-4.6394,-8.2846,2.4520,1590565050,V
74,2069080,-3.7759,-8.6955,1.2706,5.8100,1.1900,-22.5400,1000.4393,-4.3836,-8.4853,2.2259,1590565050,V
74,2071633,-4.2640,-8.6189,1.9071,11.3400,-12.6000,-21.1400,1000.4405,-4.2076,-8.5675,2.2506,1590565050,V
74,2072707,-2.9767,-8.1523,2.1535,-6.6500,-9.3800,9.4500,1000.4409,-4.0057,-8.6578,2.2733,1590565050,V
74,2072390,-3.8788,-9.4875,1.8329,-21.6300,-4.2000,5.1100,1000.4414,-3.8384,-8.7954,2.0193,1590565051,V
74,2071662,-3.8692,-8.7769,1.5099,-0.4900,-2.6600,5.5300,1000.4424,-3.8825,-8.7960,1.9305,1590565051,V
74,2073014,-3.9194,-8.7123,1.9334,-2.6600,3.0100,1.2600,1000.4435,-3.8981,-8.7941,1.9074,1590565051,V
74,2074147,-3.8836,-8.7912,2.1296,4.2000,5.3200,4.0600,1000.4442,-3.9736,-8.7453,1.9750,1590565051,V
74,2075908,-3.8237,-8.7984,1.4189,-6.1600,4.1300,0.4900,1000.4449,-3.9332,-8.7995,1.8083,1590565051,V
74,2072215,-3.7304,-8.8343,1.7635,7.2100,3.8500,-4.4800,1000.4460,-3.9276,-8.7954,1.8398,1590565051,V
74,2071115,-3.7711,-8.6285,1.7276,3.6400,3.2200,-6.3000,1000.4474,-3.9033,-8.8070,1.8361,1590565051,V
74,2071946,-3.7161,-8.5783,2.0985,-14.2100,0.2800,-3.2200,1000.4483,-3.7588,-8.8803,1.7838,1590565051,V
74,2072592,-3.8046,-8.9898,1.6678,-5.0400,-1.6100,6.5100,1000.4495,-3.7708,-8.8854,1.7323,1590565051,V
74,2074014,-3.6012,-8.7793,1.5194,-8.4700,-1.8200,2.5200,1000.4506,-3.7017,-8.9323,1.6378,1590565051,V
74,2075612,-3.8022,-8.5448,1.5482,8.4000,2.2400,5.6000,1000.4521,-3.8642,-8.8517,1.6987,1590565052,V
74,2079636,-3.6491,-8.2792,1.2299,20.3000,4.4100,2.5200,1000.4538,-4.0724,-8.7442,1.7678,1590565052,V
73,2082275,-3.8189,-8.1021,0.8112,15.3300,18.1300,14.4200,1000.4547,-4.4470,-8.5795,1.6694,1590565052,V
74,2082510,-4.5200,-8.1954,1.2299,11.6900,29.2600,20.5800,1000.4554,-4.9574,-8.3084,1.6015,1590565052,V
73,2082264,-4.7354,-8.6453,2.7254,3.5000,24.6400,28.4200,1000.4565,-5.2545,-8.0907,1.7610,1590565052,V
73,2082782,-5.4628,-8.5519,2.6632,-32.7600,0.7700,17.2900,1000.4573,-5.1046,-8.1990,1.6997,1590565052,V
73,2083085,-5.6399,-8.0518,1.8760,14.5600,-7.7700,9.2400,1000.4575,-5.3226,-8.0245,1.8566,1590565052,V
73,2081035,-5.4054,-7.4704,2.5292,18.8300,-11.3400,11.5500,1000.4573,-5.5130,-7.8144,2.1709,1590565052,V
73,2077824,-6.6138,-7.4800,2.3809,13.7900,-17.7800,7.9100,1000.4573,-5.7105,-7.6167,2.3550,1590565052,V
73,2088099,-7.7432,-6.8937,1.7755,-10.2200,-1.1900,-3.9900,1000.4568,-5.9151,-7.5130,2.1762,1590565052,V
73,2110380,-8.9563,-6.2333,1.3831,-23.0300,12.7400,-9.6600,1000.4568,-6.0066,-7.5213,1.8767,1590565053,V
73,2119604,-8.2217,-6.4056,1.9765,33.8100,29.4700,8.8900,1000.4571,-6.7953,-6.8026,1.9286,1590565053,V
73,2119061,-7.7862,-8.3964,1.5793,53.4800,61.8800,63.9100,1000.4578,-7.9093,-5.5504,1.6753,1590565053,V
73,2122224,-7.8485,-9.0281,3.0030,52.7800,76.1600,46.0600,1000.4590,-8.5801,-4.5591,1.3289,1590565053,V
73,2127443,-5.3815,-8.2409,2.4503,21.0700,38.5700,-10.5700,1000.4609,-8.2415,-5.0955,1.5113,1590565053,V
73,2128914,-6.6473,-6.5874,1.3783,17.4300,0.0700,-45.7800,1000.4630,-7.8545,-5.6364,1.6458,1590565053,V
73,2127641,-6.1711,-7.4345,0.4427,-28.5600,-45.2900,-37.6600,1000.4646,-7.0978,-6.5717,1.6139,1590565053,V
73,2124556,-5.0967,-6.9823,0.1747,-46.4800,-56.6300,-21.6300,1000.4659,-6.0090,-7.6044,1.4949,1590565053,V
73,2119276,-4.2042,-7.6307,0.3613,-18.0600,-17.9200,-23.8700,1000.4661,-5.3584,-8.1089,1.3053,1590565053,V
73,2111121,-5.9294,-7.4441,1.1773,-84.4900,-36.4000,-12.3200,1000.4667,-4.1547,-8.8492,0.7752,1590565053,V
73,2103910,-4.7306,-8.0327,2.3091,-55.3000,-40.5300,-12.6000,1000.4661,-3.6582,-9.0676,0.7531,1590565054,V
73,2098499,-4.6516,-8.0064,1.5482,4.1300,-46.7600,0.4200,1000.4661,-3.8620,-8.9463,1.1043,1590565054,V
72,2095794,-4.4459,-8.0136,0.5671,-26.9500,-50.7500,0.9100,1000.4655,-3.5966,-9.0772,0.9159,1590565054,V
72,2093488,-4.4889,-8.4395,0.7131,-20.3000,-47.8800,-3.0800,1000.4646,-3.4062,-9.1590,0.8253,1590565054,V
72,2091823,-4.8120,-8.5663,1.0648,-10.0800,-36.5400,-7.1400,1000.4630,-3.3809,-9.1636,0.8763,1590565054,V
72,2090648,-4.8311,-8.1906,1.3735,-11.6200,-34.4400,-4.2700,1000.4618,-3.4419,-9.1300,0.9836,1590565054,V
72,2090774,-4.2209,-8.3079,1.6965,-6.0200,-27.5800,4.9000,1000.4598,-3.5604,-9.0610,1.1804,1590565054,V
72,2091013,-3.8979,-7.7910,1.4094,-0.6300,-20.2300,4.8300,1000.4576,-3.6289,-9.0183,1.2932,1590565054,V
72,2091276,-4.7306,-8.6644,1.2706,-19.6700,-12.1100,3.0800,1000.4550,-3.6048,-9.0455,1.1635,1590565054,V
72,2091451,-4.9508,-8.2170,1.7755,-16.4500,-5.6000,-9.1000,1000.4525,-3.6268,-9.0361,1.1686,1590565054,V
72,2092058,-4.5655,-8.5232,1.6845,-7.9100,-0.6300,-11.4800,1000.4510,-3.6261,-9.0327,1.1966,1590565055,V
73,2092427,-4.6636,-8.7960,1.6678,-12.7400,-6.1600,-10.5000,1000.4496,-3.5751,-9.0548,1.1829,1590565055,V
72,2092519,-4.2090,-8.9037,1.2323,-23.8000,-18.7600,-19.8100,1000.4484,-3.2301,-9.2048,1.0041,1590565055,V
73,2090737,-3.8022,-9.2842,0.8064,-13.5100,-23.5200,-18.7600,1000.4475,-2.9264,-9.3204,0.8587,1590565055,V
73,2089393,-3.2997,-9.2195,0.7131,11.2000,-28.0700,-23.1700,1000.4467,-2.8013,-9.3515,0.9340,1590565055,V
73,2088580,-3.2064,-9.3057,0.5503,-5.8800,-34.4400,-27.4400,1000.4462,-2.4590,-9.4583,0.8148,1590565055,V
73,2086989,-2.2564,-9.0855,0.3326,-17.2200,-37.1000,-23.5200,1000.4459,-1.9595,-9.5919,0.5715,1590565055,V
73,2084634,-1.1988,-9.2985,-0.4857,-20.4400,-40.3900,-12.8100,1000.4456,-1.3025,-9.7187,0.1426,1590565055,V
73,2083628,-2.1799,-9.3847,0.4570,-20.5100,-30.3800,-7.5600,1000.4443,-1.1065,-9.7439,0.0445,1590565055,V
73,2083489,-1.9980,-9.4540,0.3972,-1.1200,-25.9700,3.2200,1000.4435,-1.2514,-9.7255,0.1391,1590565055,V
73,2082833,-2.4574,-10.1121,0.5073,-4.7600,-33.1100,12.2500,1000.4425,-1.4574,-9.6952,0.2248,1590565056,V
73,2082129,-1.2754,-9.4756,0.5599,-2.9400,-33.3900,6.5100,1000.4412,-1.4651,-9.6912,0.3224,1590565056,V
73,2081545,-1.8138,-9.5330,0.4235,2.5200,-26.9500,3.2200,1000.4398,-1.5351,-9.6775,0.3988,1590565056,V
73,2081653,-2.3856,-9.5904,0.7681,-11.6200,-24.2200,-2.0300,1000.4380,-1.5230,-9.6796,0.3946,1590565056,V
73,2081970,-2.5125,-9.3368,1.0600,-12.1800,-20.2300,-3.3600,1000.4367,-1.5634,-9.6711,0.4427,1590565056,V
73,2082067,-2.2540,-9.2100,1.0313,-6.6500,-17.6400,2.8000,1000.4365,-1.6654,-9.6492,0.5381,1590565056,V
73,2082456,-1.8832,-9.2459,0.9452,-2.2400,-18.9700,5.0400,1000.4358,-1.7328,-9.6309,0.6433,1590565056,V
73,2083591,-1.8879,-9.5737,0.7753,-6.7200,-14.0700,7.3500,1000.4351,-1.7466,-9.6284,0.6427,1590565056,V
73,2087742,-2.4215,-9.7484,0.9165,-3.5700,-10.2900,-3.0100,1000.4342,-1.7752,-9.6214,0.6685,1590565056,V
73,2090430,-1.9860,-9.3440,1.1797,-1.4700,-10.9900,-8.6800,1000.4326,-1.7334,-9.6225,0.7573,1590565056,V
73,2091936,-1.5912,-9.2842,1.0241,-4.8300,-12.6700,-5.2500,1000.4319,-1.6246,-9.6397,0.7789,1590565057,V
73,2091815,-0.9093,-9.4038,0.8351,-6.6500,-4.8300,2.3100,1000.4316,-1.4623,-9.6671,0.7614,1590565057,V
74,2091681,-0.6413,-9.5521,0.7322,-0.2800,10.7800,1.9600,1000.4313,-1.3257,-9.6860,0.7705,1590565057,V
74,2093772,-0.9763,-9.9637,0.6173,-14.6300,18.8300,-8.4700,1000.4304,-1.0926,-9.7296,0.5586,1590565057,V
74,2097039,-1.5314,-10.4782,0.8207,0.3500,23.8700,-15.3300,1000.4302,-1.0321,-9.7372,0.5408,1590565057,V
74,2099845,-1.1509,-9.5354,0.7657,6.2300,17.5000,-25.4100,1000.4296,-0.8981,-9.7490,0.5668,1590565057,V
74,2097466,-1.6822,-9.6694,-0.1819,17.9200,23.1000,-7.9800,1000.4293,-1.1880,-9.7173,0.5778,1590565057,V
73,2095194,-1.0887,-8.7912,-0.3613,10.8500,28.7700,-0.4900,1000.4297,-1.6608,-9.6534,0.4737,1590565057,V
74,2093121,-1.5984,-9.7268,-0.7561,0.8400,22.8200,2.5900,1000.4299,-3.2221,-9.2593,0.2325,1590565057,V
74,2091973,-1.1174,-9.3129,0.2225,-17.0800,8.7500,-5.1100,1000.4309,-1.3107,-9.7183,0.0896,1590565057,V
74,2090496,-1.1366,-10.0331,-0.1220,-8.1900,-1.8900,-11.5500,1000.4320,0.0328,-9.8066,-0.0261,1590565058,V
74,2089265,-1.5912,-10.6026,0.2273,-3.0100,-9.6600,-8.6100,1000.4323,-0.3850,-9.7991,-0.0079,1590565058,V
74,2088325,-0.3326,-9.3320,0.4546,17.0800,-11.3400,-8.0500,1000.4319,-0.8454,-9.7669,0.2533,1590565058,V
75,2088499,-0.1723,-8.7817,0.1053,3.9900,-14.3500,-10.2200,1000.4324,-0.6679,-9.7801,0.2717,1590565058,V
74,2089341,-0.1101,-9.8728,0.3470,-7.0700,-1.6800,4.5500,1000.4326,-0.4571,-9.7931,0.2399,1590565058,V
75,2090848,0.3087,-9.4564,1.4237,14.9800,18.1300,6.4400,1000.4322,-0.5449,-9.7753,0.5634,1590565058,V
75,2096883,0.7825,-9.0664,1.6008,1.1200,19.9500,-3.5700,1000.4321,-0.3166,-9.7804,0.6434,1590565058,V
75,2101462,0.1651,-9.0592,0.8997,-2.1000,30.1000,-2.1000,1000.4321,-0.2010,-9.7862,0.6007,1590565058,V
76,2104537,-1.1246,-10.4638,1.0792,-5.1100,39.7600,1.4000,1000.4318,-0.3852,-9.7767,0.6614,1590565058,V
76,2105353,-1.1940,-10.2724,0.6652,5.9500,38.2200,13.0900,1000.4315,-0.7040,-9.7504,0.7772,1590565058,V
76,2101733,-0.6389,-8.7577,0.0072,22.8200,41.3700,17.4300,1000.4314,-1.1053,-9.6978,0.9491,1590565059,V
76,2097281,-2.4096,-10.0522,-0.9595,23.2400,39.8300,7.2800,1000.4315,-1.6901,-9.6233,0.8402,1590565059,V
76,2095101,-1.5840,-8.9372,1.5362,4.5500,22.4000,2.3800,1000.4315,-1.7993,-9.5879,1.0027,1590565059,V
76,2093467,-0.8255,-9.5354,0.7537,-2.4500,13.6500,11.2000,1000.4309,-1.6617,-9.6173,0.9578,1590565059,V
76,2092294,-2.2062,-9.8417,1.8425,-2.9400,-6.5800,9.3100,1000.4307,-1.8086,-9.5746,1.1075,1590565059,V
76,2092221,-1.3663,-9.6814,1.5912,7.6300,-33.6700,4.6900,1000.4307,-1.7345,-9.5615,1.3190,1590565059,V
76,2090562,-1.0122,-9.4684,0.6508,2.0300,-52.6400,7.0000,1000.4309,-1.5968,-9.5892,1.2917,1590565059,V
76,2087367,-2.8092,-11.2104,0.6508,-4.2000,-55.9300,12.8100,1000.4308,-1.6936,-9.5705,1.3071,1590565059,V
76,2084796,-1.7180,-8.3462,1.5529,-9.4500,-51.1700,11.7600,1000.4304,-1.7287,-9.5479,1.4210,1590565059,V
76,2081904,-2.0124,-9.6526,0.8447,8.4700,-33.3900,-1.8200,1000.4306,-1.7465,-9.5465,1.4085,1590565059,V
76,2080151,-2.4072,-8.9420,3.0748,-13.7900,-22.3300,15.3300,1000.4313,-1.9622,-9.4502,1.7361,1590565060,V
76,2078380,-1.0217,-9.1478,1.7515,-12.3900,-24.3600,0.1400,1000.4319,-1.7204,-9.4988,1.7273,1590565060,V
76,2076339,-1.7180,-9.4397,2.4335,-18.2000,-22.6100,0.5600,1000.4321,-1.6459,-9.5049,1.7657,1590565060,V
75,2074301,-0.6867,-8.5328,1.7539,3.6400,-11.1300,-11.4800,1000.4308,-1.4382,-9.5324,1.7989,1590565060,V
75,2071973,-0.2943,-10.1456,0.7083,-8.6100,-0.7000,-10.0100,1000.4285,-1.0909,-9.6326,1.4808,1590565060,V
75,2068725,-2.0315,-11.1386,1.2945,-10.4300,26.6700,1.8900,1000.4270,-1.1612,-9.6531,1.2808,1590565060,V
75,2066043,-0.8255,-8.6812,0.4905,30.1000,38.5000,-13.2300,1000.4249,-1.1726,-9.6443,1.3353,1590565060,V
75,2063173,-3.1801,-10.4207,-0.1268,28.4900,30.4500,-11.4100,1000.4240,-1.4276,-9.6002,1.4033,1590565060,V
75,2065538,-1.5625,-7.7599,1.0098,-7.4900,7.0000,-0.7700,1000.4236,-1.4493,-9.6108,1.3050,1590565060,V
75,2072555,-1.0959,-10.1695,1.3735,-12.2500,-9.1700,-9.7300,1000.4233,-1.1944,-9.6634,1.1672,1590565060,V
75,2079419,-1.6678,-9.7531,0.0933,-36.5400,-40.5300,-4.5500,1000.4237,-0.9917,-9.7345,0.6529,1590565061,V
75,2090481,-1.0122,-11.3563,0.2656,-12.2500,-49.1400,-22.9600,1000.4237,-0.6372,-9.7768,0.4229,1590565061,V
76,2108866,-0.6652,-8.8869,0.9523,6.5800,-29.4000,-9.3800,1000.4240,-0.6032,-9.7710,0.5785,1590565061,V
75,2126942,-0.9835,-9.5258,2.1416,1.4700,-57.4700,6.8600,1000.4237,-0.7489,-9.7314,0.9537,1590565061,V
75,2133883,-0.8016,-9.6981,2.2612,40.4600,-23.6600,28.7000,1000.4233,-1.1240,-9.5787,1.7764,1590565061,V
76,2133998,0.4211,-9.0233,2.1416,68.6000,-16.3100,2.5900,1000.4236,-0.9421,-9.4235,2.5458,1590565061,V
76,2138001,-1.0839,-10.1839,2.3641,15.0500,10.1500,20.9300,1000.4238,-1.1755,-9.3307,2.7798,1590565061,V
75,2140996,-1.8090,-9.0377,3.3787,18.5500,17.3600,8.7500,1000.4229,-1.4367,-9.1970,3.0857,1590565061,V
75,2144448,-2.5316,-9.2507,2.0004,2.7300,25.0600,17.8500,1000.4222,-1.8665,-9.1706,2.9302,1590565061,V
76,2143635,-3.3667,-9.1597,2.9862,-3.7100,23.8000,13.0900,1000.4220,-2.2775,-9.0834,2.9114,1590565061,V
76,2141022,-2.9480,-8.1858,3.2351,8.9600,11.3400,2.5200,1000.4205,-2.5172,-8.9651,3.0758,1590565062,V
76,2141656,-1.5577,-9.1717,3.6132,50.4000,-7.4200,-3.2900,1000.4198,-2.3949,-8.8078,3.5857,1590565062,V
76,2142987,-2.1751,-9.2148,4.0415,1.0500,-18.6900,17.6400,1000.4194,-2.4154,-8.7157,3.7912,1590565062,V
75,2143655,-3.3571,-9.1549,3.4265,3.9900,-30.5900,18.8300,1000.4197,-2.6332,-8.5975,3.9140,1590565062,V
75,2142956,-2.7039,-7.8221,3.9553,-33.1800,-43.6800,36.4700,1000.4191,-2.7674,-8.4818,4.0706,1590565062,V
75,2139631,-2.2445,-9.0784,3.5031,-4.2700,-15.6100,22.4000,1000.4181,-2.7716,-8.4719,4.0883,1590565062,V
75,2134911,-2.4168,-9.0616,5.9988,-8.7500,-20.5100,17.4300,1000.4174,-2.7559,-8.3399,4.3613,1590565062,V
75,2131499,-3.5868,-7.5374,3.6562,70.7000,8.8200,13.3000,1000.4166,-3.1673,-7.9497,4.7897,1590565062,V
74,2127048,-2.9456,-8.3533,5.4197,23.3100,-0.8400,15.8200,1000.4152,-3.2138,-7.7443,5.0860,1590565062,V
75,2126832,-3.7352,-6.8411,5.5059,-2.4500,-7.3500,13.3700,1000.4142,-3.3908,-7.5430,5.2703,1590565062,V
74,2125404,-3.9266,-6.5874,5.9151,-7.7700,-14.5600,8.8200,1000.4133,-3.4980,-7.3497,5.4696,1590565063,V
74,2125318,-3.1083,-7.0373,5.2403,-51.1000,-34.0900,10.3600,1000.4127,-3.3412,-7.5204,5.3339,1590565063,V
74,2121358,-3.3476,-8.8582,4.2664,-10.7800,-12.8100,-4.7600,1000.4121,-3.2437,-7.7646,5.0358,1590565063,V
74,2118885,-3.7807,-7.6379,4.9220,-46.3400,-24.4300,2.4500,1000.4111,-3.2253,-7.9199,4.8004,1590565063,V
74,2114811,-3.1346,-8.0351,4.8000,15.4700,-30.0300,-19.0400,1000.4095,-2.9897,-7.8988,4.9840,1590565063,V
74,2110925,-2.1655,-9.2267,5.1326,-16.3800,-37.9400,-29.6100,1000.4079,-2.4570,-8.1356,4.8934,1590565063,V
74,2107744,-0.7490,-8.1739,5.3121,6.1600,-37.0300,-32.2000,1000.4069,-1.7941,-8.1765,5.1085,1590565063,V
74,2103485,-0.4235,-7.0995,6.8435,43.2600,-17.6400,-33.4600,1000.4062,-1.2811,-7.9597,5.5832,1590565063,V
73,2099308,0.3805,-6.8052,4.9508,-34.7900,-36.1200,-3.9900,1000.4061,-0.8971,-7.9091,5.7281,1590565063,V
74,2096134,-0.4331,-9.7149,2.6536,-78.7500,-17.9900,5.9500,1000.4050,-0.7916,-8.4397,4.9311,1590565063,V
74,2091998,-1.1294,-7.6834,3.9003,-40.2500,-37.5200,30.5200,1000.4040,-0.8991,-8.0435,5.5375,1590565064,V
74,2088214,-0.5815,-8.9659,2.4239,23.8700,-37.5900,37.7300,1000.4033,-0.9479,-7.6911,6.0099,1590565064,V
73,2083623,-0.2154,-9.5115,1.4620,-10.1500,-10.0100,49.4200,1000.4029,-1.1045,-7.8646,5.7531,1590565064,V
73,2078950,-0.8806,-10.9185,1.3089,-34.6500,2.3800,31.3600,1000.4019,-1.4304,-8.4012,4.8522,1590565064,V
73,2075396,-1.2802,-10.1886,1.8401,2.2400,17.7800,7.5600,1000.4003,-1.5941,-8.8779,3.8487,1590565064,V
73,2073379,-2.1655,-9.6120,2.3330,17.2200,14.9800,-7.8400,1000.3989,-1.6963,-9.0749,3.3073,1590565064,V
73,2071549,-1.9047,-9.0209,2.2038,-1.6800,4.9000,-3.9900,1000.3981,-1.7271,-9.1902,2.9541,1590565064,V
73,2069764,-1.9310,-9.3416,2.0889,-0.4200,5.0400,0.1400,1000.3985,-1.7789,-9.2543,2.7135,1590565064,V
73,2067419,-1.9717,-9.3727,2.3737,1.3300,2.1000,-1.1900,1000.3989,-1.8085,-9.2744,2.6238,1590565064,V
73,2063353,-1.3065,-9.0401,1.9908,3.8500,2.0300,5.3900,1000.3997,-1.7808,-9.2932,2.5758,1590565064,V
73,2059455,-1.9310,-9.8345,1.9382,-1.0500,7.2800,-1.2600,1000.4000,-1.7978,-9.3422,2.3794,1590565065,V
72,2056913,-1.7659,-9.3535,2.2134,-0.7000,7.4900,-9.4500,1000.4005,-1.7228,-9.3833,2.2707,1590565065,V
73,2054958,-1.8951,-9.2578,2.3354,-0.7000,6.1600,-7.0000,1000.4014,-1.7080,-9.3955,2.2313,1590565065,V
73,2053278,-1.8209,-9.2770,2.1966,0.9800,3.9900,-3.2200,1000.4019,-1.7166,-9.3982,2.2128,1590565065,V
72,2051787,-1.7898,-9.3200,2.2421,2.9400,3.0100,-0.9100,1000.4024,-1.7401,-9.3885,2.2359,1590565065,V
72,2050645,-1.7563,-9.3918,2.4790,1.8900,1.1900,-0.0700,1000.4042,-1.7489,-9.3729,2.2936,1590565065,V
73,2048851,-1.8162,-9.0832,2.4215,0.1400,-4.2700,-1.2600,1000.4058,-1.7537,-9.3619,2.3344,1590565065,V
72,2045519,-1.3017,-9.2650,2.0578,-4.8300,-0.9100,5.3200,1000.4071,-1.6967,-9.3854,2.2816,1590565065,V
72,2042997,-2.4048,-9.0999,2.7805,12.0400,-4.0600,-5.9500,1000.4083,-1.8138,-9.3154,2.4707,1590565065,V
72,2041268,-1.1151,-9.1597,2.3067,2.0300,-2.3800,5.2500,1000.4097,-1.7209,-9.3219,2.5121,1590565065,V
73,2040153,-1.3472,-9.5163,2.2229,-6.8600,-5.8800,4.6900,1000.4108,-1.6551,-9.3534,2.4381,1590565066,V
72,2039457,-1.1533,-9.5426,2.1727,-2.8700,3.6400,2.8700,1000.4118,-1.5748,-9.3837,2.3740,1590565066,V
72,2039047,-1.4166,-9.5904,2.1009,0.7000,8.7500,-2.6600,1000.4125,-1.5335,-9.4131,2.2832,1590565066,V
72,2038639,-1.5027,-9.6024,1.8760,-2.8000,8.7500,-8.1900,1000.4124,-1.4619,-9.4659,2.1048,1590565066,V
73,2037936,-1.8353,-9.4158,2.0195,-0.2800,12.5300,-11.3400,1000.4122,-1.4565,-9.4886,2.0036,1590565066,V
72,2036041,-1.6702,-9.1406,2.0794,-2.1000,10.2200,-7.0700,1000.4129,-1.4575,-9.4977,1.9596,1590565066,V
72,2034988,-1.5697,-9.4828,2.3186,-0.5600,12.2500,-3.7800,1000.4136,-1.4635,-9.4928,1.9788,1590565066,V
72,2036247,-2.3856,-9.2387,2.4790,9.3100,-2.3800,-6.4400,1000.4137,-1.6157,-9.4324,2.1422,1590565066,V
73,2036563,-0.6413,-9.2435,1.8784,4.4800,-2.1000,5.1800,1000.4133,-1.4597,-9.4475,2.1873,1590565066,V
72,2036822,-1.3065,-9.7579,1.9549,-5.0400,-1.0500,0.8400,1000.4131,-1.4135,-9.4753,2.0954,1590565066,V
73,2037553,-1.3998,-9.3751,2.0770,-7.7700,-0.9100,-7.2100,1000.4132,-1.3276,-9.5112,1.9863,1590565067,V
72,2037917,-1.3687,-9.2698,2.3641,3.4300,2.1700,-3.5000,1000.4131,-1.3241,-9.4939,2.0697,1590565067,V
73,2039663,-1.2514,-9.4660,2.2445,-1.8900,-5.6700,-1.3300,1000.4122,-1.2846,-9.4952,2.0882,1590565067,V
72,2039408,-1.1701,-9.5904,2.2038,2.8000,-6.1600,-4.3400,1000.4111,-1.2196,-9.4984,2.1128,1590565067,V
73,2040982,-1.0289,-9.4397,2.3737,0.9800,-8.6100,-5.8800,1000.4098,-1.1214,-9.5034,2.1442,1590565067,V
72,2043332,-0.9428,-9.3105,2.1799,2.7300,-11.4100,-5.3900,1000.4089,-1.0323,-9.5093,2.1631,1590565067,V
73,2045140,-0.6150,-9.2794,2.1966,2.4500,-8.2600,0.9800,1000.4077,-0.9518,-9.5027,2.2277,1590565067,V
73,2046082,-0.4881,-9.4875,2.1440,0.3500,-5.1800,1.6100,1000.4062,-0.8643,-9.5058,2.2501,1590565067,V
73,2047137,-0.6508,-9.2530,1.7970,-5.3200,-4.7600,-5.4600,1000.4064,-0.7645,-9.5529,2.0805,1590565067,V
73,2048448,-0.5097,-9.5593,1.8832,-7.9800,5.6000,-1.0500,1000.4068,-0.6972,-9.5861,1.9469,1590565067,V
73,2049313,-0.0359,-9.9876,2.2181,-2.1000,27.8600,-5.3200,1000.4065,-0.5446,-9.6231,1.8080,1590565068,V
73,2051050,-0.7298,-8.8463,2.4670,11.3400,10.2900,-1.4000,1000.4057,-0.6093,-9.5759,2.0252,1590565068,V
73,2049912,0.0718,-9.7220,1.9262,-2.8700,19.3200,-6.1600,1000.4054,-0.4275,-9.6281,1.8129,1590565068,V
73,2049554,-0.0167,-9.6598,1.6845,5.9500,27.9300,-15.2600,1000.4050,-0.2366,-9.6876,1.5051,1590565068,V
74,2050806,0.0814,-9.1167,1.5170,-2.3100,39.3400,-8.6800,1000.4039,-0.5070,-8.8888,4.1112,1590565068,V
74,2053912,-0.9069,-9.7723,2.3498,6.2300,51.1000,-6.8600,1000.4034,-0.2753,-9.6948,1.4513,1590565068,V
74,2055961,0.0287,-9.6574,1.4094,6.8600,55.7900,-0.6300,1000.4036,-0.7473,-8.9216,4.0021,1590565068,V
74,2057200,-0.0335,-10.0140,1.9693,0.7000,62.0200,-6.6500,1000.4047,-0.7769,-8.8677,4.1148,1590565068,V
74,2060177,-1.2491,-9.6838,2.2684,-4.3400,57.6100,-5.3200,1000.4054,-0.4293,-9.6920,1.4320,1590565068,V
74,2061368,-1.5721,-9.7340,2.8786,30.1000,44.5900,-7.5600,1000.4058,-0.7212,-9.5958,1.8896,1590565068,V
74,2062468,-0.9476,-10.7605,3.4839,81.7600,24.7800,-9.5900,1000.4056,-0.9220,-9.3905,2.6717,1590565069,V
74,2066122,-2.0028,-7.8126,4.5703,88.1300,27.3000,4.2700,1000.4052,-1.5103,-8.9145,3.7974,1590565069,V
74,2072560,-0.8471,-7.9633,5.6064,24.0800,4.1300,5.7400,1000.4047,-1.4932,-8.7247,4.2213,1590565069,V
74,2083946,-3.0772,-6.8435,7.4130,58.4500,3.7100,22.4700,1000.4036,-2.1160,-7.9141,5.3908,1590565069,V
74,2096657,-1.8736,-6.9296,6.4343,20.6500,-19.8800,3.4300,1000.4024,-2.0535,-7.6092,5.8356,1590565069,V
74,2100653,-1.1844,-7.3149,5.7715,-7.7000,-17.5700,20.4400,1000.4012,-1.9342,-7.5001,6.0148,1590565069,V
74,2103092,-1.3663,-7.8867,5.7093,1.3300,0.1400,12.8800,1000.3997,-1.8947,-7.4853,6.0457,1590565069,V
74,2105745,-1.0481,-6.9511,6.5061,26.0400,2.6600,14.8400,1000.3975,-1.8352,-7.1904,6.4110,1590565069,V
74,2108724,-1.7970,-8.6237,6.1854,-7.4900,1.5400,0.1400,1000.3949,-1.8032,-7.3784,6.2031,1590565069,V
75,2108236,-1.4883,-7.4465,6.1376,-9.2400,5.3900,-0.9800,1000.3923,-1.7548,-7.4854,6.0877,1590565069,V
74,2107925,-1.5936,-7.3005,6.3506,-5.8800,5.1100,7.4200,1000.3908,-1.7848,-7.4556,6.1155,1590565070,V
75,2106625,-2.0148,-7.1833,5.9390,-3.8500,1.9600,8.6100,1000.3899,-1.8980,-7.4140,6.1320,1590565070,V
75,2105730,-2.3521,-8.1978,5.8098,-48.4400,8.2600,10.7800,1000.3885,-2.0438,-7.7292,5.6792,1590565070,V
75,2104901,-2.4622,-7.3795,5.8265,-11.9000,9.7300,0.8400,1000.3868,-2.1675,-7.7661,5.5821,1590565070,V
75,2104251,-2.5029,-9.4804,3.8070,-90.5100,4.7600,27.5800,1000.3854,-2.3542,-8.3354,4.5988,1590565070,V
75,2104475,-0.4881,-7.3795,3.9266,47.0400,28.0700,17.3600,1000.3843,-2.4195,-8.0953,4.9783,1590565070,V
75,2107043,-3.3906,-7.6068,4.0534,-27.0900,-1.3300,13.2300,1000.3837,-2.7024,-8.1741,4.6959,1590565070,V
75,2110253,-4.1515,-9.4277,4.1898,15.1200,-18.6900,-16.1700,1000.3842,-2.6484,-8.1864,4.7052,1590565070,V
75,2112905,-4.2808,-8.7649,4.0128,-62.5800,-18.1300,-15.8900,1000.3851,-2.6484,-8.5381,4.0321,1590565070,V
75,2120382,-3.5151,-7.6068,4.5416,-87.2900,-36.8200,-12.6700,1000.3856,-2.5065,-8.7752,3.5894,1590565070,V
75,2126133,-2.5507,-8.8223,2.5244,-6.3700,-60.7600,-13.8600,1000.3874,-2.2875,-8.8745,3.4900,1590565071,V
75,2129106,-2.4526,-8.7745,3.1346,-37.4500,-89.0400,1.1900,1000.3893,-2.0919,-8.8973,3.5541,1590565071,V
75,2130516,-1.2921,-9.2698,2.5962,-26.1800,-133.7700,10.9200,1000.3903,-1.7095,-8.6942,4.2022,1590565071,V
75,2129175,0.4905,-9.8201,1.4022,-7.1400,-133.9100,31.0800,1000.3911,-0.7392,-7.6066,6.1452,1590565071,V
75,2127375,-0.2847,-9.2172,1.0146,21.1400,-108.1500,40.8100,1000.3917,-0.4602,-7.3597,6.4648,1590565071,V
75,2128488,-0.7250,-9.2794,1.4620,12.2500,-55.5100,39.9000,1000.3923,-0.6733,-7.4009,6.3987,1590565071,V
75,2133267,-3.0365,-9.4636,0.8806,-34.7200,-34.3000,34.6500,1000.3933,-1.5726,-8.2803,5.0134,1590565071,V
75,2140445,-2.5771,-9.7651,1.4094,-10.5700,-19.2500,-2.5900,1000.3943,-1.8571,-8.8319,3.8365,1590565071,V
75,2152357,-3.1370,-9.3488,2.1296,12.8800,-0.9100,-3.0100,1000.3953,-2.0689,-9.0121,3.2668,1590565071,V
75,2165074,-2.9049,-9.1167,2.6321,5.6000,-5.0400,5.7400,1000.3970,-2.2377,-9.0221,3.1249,1590565071,V
75,2176093,-3.1681,-8.4491,2.6536,-0.0700,-6.1600,-0.9100,1000.3990,-2.3897,-9.0194,3.0182,1590565072,V
75,2177930,-2.7374,-9.0903,0.5121,-45.9900,-2.2400,8.3300,1000.4007,-2.4047,-9.2904,2.0192,1590565072,V
76,2170671,-3.4050,-10.0331,0.8231,21.9800,36.8200,-1.4000,1000.4017,-2.6173,-9.2792,1.7936,1590565072,V
76,2158122,-1.6152,-9.8297,0.9858,13.9300,31.0800,-7.6300,1000.4028,-2.4832,-9.3439,1.6417,1590565072,V
76,2146422,-3.1131,-10.7246,1.3615,9.8000,22.3300,-12.2500,1000.4041,-2.5064,-9.3457,1.5953,1590565072,V
76,2138661,-1.3448,-9.2985,2.2229,33.0400,46.7600,-19.7400,1000.4059,-2.3929,-9.3218,1.8840,1590565072,V
76,2133000,-2.7517,-9.2602,3.8094,86.6600,45.1500,-43.5400,1000.4080,-2.6551,-9.0486,2.6914,1590565072,V
76,2132116,-1.8042,-7.5398,5.6423,58.3100,34.0200,-43.3300,1000.4091,-2.5297,-8.8352,3.4221,1590565072,V
76,2133090,-0.9811,-6.7478,5.9749,50.4000,18.2000,-32.4100,1000.4095,-2.2259,-8.6467,4.0560,1590565072,V
76,2134504,-0.0885,-6.6712,6.5061,8.7500,6.5100,-8.6100,1000.4095,-1.7874,-8.6131,4.3347,1590565072,V
76,2134026,0.1460,-7.2359,5.5801,-1.9600,10.9900,-1.6100,1000.4086,-1.3933,-8.6883,4.3293,1590565073,V
76,2130646,0.1101,-8.3462,5.0776,-13.5800,20.4400,-5.1100,1000.4078,-1.0505,-8.8710,4.0462,1590565073,V
76,2127588,-1.0241,-8.7553,4.9436,-23.2400,15.6100,-25.4800,1000.4067,-0.8249,-9.0700,3.6367,1590565073,V
76,2125684,-0.3159,-8.9037,4.0989,-1.5400,43.1900,-32.4100,1000.4056,-1.6767,-5.2207,8.1304,1590565073,V
75,2123911,2.2780,-9.8608,2.8642,-53.6200,65.7300,-42.1400,1000.4045,-0.8798,-5.9617,7.7366,1590565073,V
75,2125784,-2.1464,-9.2411,5.6351,46.6200,64.1200,-97.1600,1000.4040,-1.2445,-5.0702,8.3015,1590565073,V
75,2133550,-0.2225,-8.1332,5.7739,60.6200,24.6400,-77.4200,1000.4028,-1.1161,-4.2484,8.7679,1590565073,V
75,2144235,-0.0981,-6.8076,6.3290,55.7900,4.4800,-37.8700,1000.4028,-0.9619,-3.5396,9.0949,1590565073,V
75,2159803,0.6724,-4.9220,6.7406,54.6700,-14.8400,21.4200,1000.4025,-0.8325,-2.7672,9.3712,1590565073,V
75,2174113,0.8901,-6.7956,6.6162,67.6200,2.3100,47.1800,1000.4019,-0.6807,-2.0272,9.5707,1590565073,V
75,2187223,1.1892,-6.9655,6.6497,-10.2200,-0.2800,60.2700,1000.4009,-0.4202,-2.1450,9.5600,1590565074,V
75,2198376,1.2347,-5.7236,7.2120,10.5700,15.8900,38.0100,1000.3997,-0.2999,-1.9247,9.6113,1590565074,V
75,2204697,0.1077,-6.6497,7.6522,-28.5600,25.1300,43.1900,1000.3982,-0.3453,-7.8587,5.8560,1590565074,V
75,2217050,-0.6963,-7.0780,8.6189,-24.9200,0.6300,34.0900,1000.3970,-0.5969,-6.9094,6.9335,1590565074,V
75,2230529,0.4570,-7.4393,8.1906,-3.7800,-4.9000,11.6900,1000.3957,-0.5109,-6.5300,7.2986,1590565074,V
75,2252314,0.2010,-6.8315,7.8054,20.7900,-11.1300,-9.3100,1000.3952,-0.2667,-6.1346,7.6463,1590565074,V
75,2283024,-0.3446,-6.0060,7.9729,30.1000,-7.4900,-16.5900,1000.3945,-0.1706,-6.1863,7.6073,1590565074,V
75,2314064,-0.2632,-5.0058,7.9179,33.0400,-1.8900,-12.4600,1000.3930,-0.1296,-6.5563,7.2917,1590565074,V
75,2335685,0.1507,-5.0728,8.3462,15.5400,2.0300,-2.6600,1000.3918,-0.0626,-7.4025,6.4319,1590565074,V
76,2349747,0.1914,-5.9916,8.9372,18.8300,-5.3900,-16.1000,1000.3909,0.0363,-3.3099,9.2311,1590565074,V
76,2358905,0.2728,-4.7163,8.0997,10.5000,-12.2500,-23.3100,1000.3892,0.2420,-4.3611,8.7802,1590565075,V
76,2362974,0.1316,-4.6445,8.3797,-6.5100,-19.1100,-16.8000,1000.3882,0.4052,-4.9612,8.4494,1590565075,V
76,2360945,0.7011,-4.4004,8.4323,-3.3600,-10.9900,-11.6900,1000.3876,0.5802,-4.9965,8.4184,1590565075,V
76,2354327,0.9404,-4.5823,8.5161,-13.3000,-9.4500,-2.3800,1000.3866,0.7301,-5.1749,8.2980,1590565075,V
76,2348448,1.1725,-4.7402,8.1691,-7.9100,-0.6300,4.2000,1000.3851,0.8198,-5.2224,8.2598,1590565075,V
76,2341758,1.4907,-5.0273,8.4060,-17.5700,-0.9100,9.7300,1000.3842,0.9313,-5.4123,8.1246,1590565075,V
76,2333191,1.5529,-5.5346,8.1356,-18.4800,3.7100,3.1500,1000.3830,1.0220,-5.5374,8.0289,1590565075,V
76,2324406,1.0552,-5.3815,8.5759,-28.8400,1.1200,4.9000,1000.3816,1.0072,-5.7150,7.9054,1590565075,V
76,2317345,0.9978,-5.6662,7.5900,-4.0600,8.4000,6.3000,1000.3799,0.9378,-5.7157,7.9134,1590565075,V
76,2312278,1.0002,-5.8074,7.8221,-5.8100,14.3500,6.1600,1000.3784,0.8405,-5.6211,7.9917,1590565075,V
76,2306980,0.7083,-6.1184,7.9633,-4.5500,3.7100,4.2000,1000.3781,0.7740,-5.6950,7.9459,1590565076,V
76,2302106,0.4738,-5.8433,7.9274,-5.8800,5.4600,6.8600,1000.3781,0.6558,-5.7262,7.9341,1590565076,V
76,2297732,0.4786,-6.1448,7.7695,4.2700,4.1300,5.1100,1000.3779,0.5747,-5.7313,7.9367,1590565076,V
76,2293483,0.7418,-6.2907,7.9657,3.3600,3.4300,1.1900,1000.3780,0.5769,-5.7186,7.9458,1590565076,V
76,2286959,0.4738,-6.0778,7.9681,10.7100,3.0100,-3.9900,1000.3785,0.5468,-5.5326,8.0785,1590565076,V
76,2281356,0.4355,-5.6375,7.8221,16.9400,3.5000,-5.0400,1000.3784,0.5152,-5.2574,8.2622,1590565076,V
76,2277559,0.6748,-5.6710,8.1619,1.6800,4.8300,-5.1100,1000.3786,0.5282,-5.1205,8.3469,1590565076,V
77,2275143,0.4307,-5.4556,8.2074,0.2800,3.0800,-3.0800,1000.3791,0.4962,-5.0312,8.4030,1590565076,V
76,2274352,0.5743,-5.5202,8.2792,7.0000,2.8700,-3.7800,1000.3790,0.4995,-4.9274,8.4641,1590565076,V
76,2274926,0.5767,-5.4197,8.2887,8.2600,2.5200,-3.8500,1000.3776,0.5049,-4.8304,8.5195,1590565076,V
76,2276391,0.5623,-5.5178,8.5831,4.6900,0.1400,-4.4800,1000.3765,0.5230,-4.8218,8.5233,1590565077,V
77,2278437,0.6245,-5.3312,8.5328,18.8300,-2.5900,-10.0100,1000.3755,0.5804,-4.6943,8.5905,1590565077,V
77,2279611,0.6604,-5.0321,8.9109,7.4900,-3.9900,-8.1200,1000.3749,0.6388,-4.6598,8.6051,1590565077,V
77,2278357,1.1701,-5.1206,8.5926,38.6400,-4.2700,-18.9000,1000.3743,0.7999,-4.3441,8.7555,1590565077,V
77,2279582,0.8351,-4.4865,7.6977,21.4200,7.0700,-18.3400,1000.3733,0.8018,-4.0244,8.9068,1590565077,V
77,2274945,1.1677,-3.7591,9.1908,55.3700,5.6700,-23.8000,1000.3730,0.8263,-3.2800,9.2048,1590565077,V
77,2278659,1.0504,0.0024,10.7701,15.4000,8.6800,-25.7600,1000.3726,0.8923,-2.4158,9.4625,1590565077,V
77,2292347,1.2012,-1.5649,9.2243,25.2700,6.0900,-28.4900,1000.3721,0.9091,-1.9527,9.5672,1590565077,V
77,2307130,1.1007,-1.8927,9.3583,2.3800,3.8500,-6.9300,1000.3723,0.9221,-1.8898,9.5786,1590565077,V
77,2321758,1.2299,-1.3352,9.0209,-23.4500,6.3700,6.3000,1000.3716,1.0057,-1.9782,9.5523,1590565077,V
77,2341093,1.2491,-1.9789,9.3727,-28.9100,9.2400,12.9500,1000.3712,1.0320,-2.1930,9.5024,1590565078,V
77,2359002,1.0624,-3.4098,9.3894,-37.8700,8.6800,4.4800,1000.3702,1.0423,-2.6400,9.3869,1590565078,V
77,2370944,0.8806,-3.6443,9.6455,-19.5300,5.1100,-10.0800,1000.3695,1.0150,-2.8504,9.3282,1590565078,V
77,2378501,0.3087,-3.7424,9.1645,-16.5900,5.6000,-10.2200,1000.3693,0.8705,-2.9800,9.3023,1590565078,V
77,2382933,-0.2249,-3.3428,9.3942,-17.8500,-1.1900,-3.5000,1000.3683,0.6732,-3.0562,9.2939,1590565078,V
77,2386538,-0.1507,-3.6419,9.1310,-17.5000,-1.9600,7.7000,1000.3672,0.5178,-3.1993,9.2556,1590565078,V
77,2388903,0.0885,-4.0798,8.8774,-19.7400,-5.7400,17.8500,1000.3663,0.4557,-3.6053,9.1085,1590565078,V
76,2390108,0.3924,-4.9484,8.6644,-13.5800,-3.1500,19.3900,1000.3662,0.4329,-4.1642,8.8681,1590565078,V
77,2388705,0.4618,-5.3073,8.6740,-6.0200,0.1400,7.8400,1000.3665,0.4188,-4.4894,8.7086,1590565078,V
76,2384389,0.4451,-4.9101,8.6381,0.1400,-0.4200,1.3300,1000.3666,0.4227,-4.5915,8.6550,1590565078,V
76,2380588,0.4642,-4.9340,8.5735,-3.7100,2.9400,2.2400,1000.3667,0.4041,-4.6175,8.6421,1590565079,V
76,2378601,0.4020,-5.0776,8.6572,-1.4000,1.2600,-0.4200,1000.3669,0.3945,-4.6399,8.6306,1590565079,V
76,2378114,0.3589,-4.9986,8.5304,0.7700,0.5600,-0.9800,1000.3676,0.3854,-4.6511,8.6249,1590565079,V
76,2381900,0.3613,-5.1565,8.5687,2.6600,-0.2100,-4.8300,1000.3693,0.3934,-4.6251,8.6385,1590565079,V
76,2386064,0.6365,-4.9938,8.6046,1.6800,-1.1200,-4.8300,1000.3710,0.4609,-4.6494,8.6221,1590565079,V
76,2390819,0.0694,-4.8407,9.0377,14.0000,-0.0700,-16.5900,1000.3719,0.4194,-4.2632,8.8215,1590565079,V
75,2394155,1.2012,-4.1874,7.8676,-6.5800,5.1800,7.1400,1000.3735,0.5438,-4.4140,8.7402,1590565079,V
76,2392647,0.2847,-5.3862,8.9324,-6.5100,6.5800,-2.6600,1000.3746,0.4500,-4.3318,8.7866,1590565079,V
76,2391262,0.4283,-4.4243,8.9587,2.0300,-1.6100,-3.2200,1000.3755,0.4630,-4.3178,8.7928,1590565079,V
75,2390828,0.5815,-4.8263,8.9324,-2.5900,-2.6600,0.2800,1000.3761,0.5032,-4.4886,8.7046,1590565079,V
75,2389113,0.4953,-4.9866,8.8367,12.4600,-1.0500,-6.7200,1000.3768,0.5188,-4.3902,8.7537,1590565080,V
75,2386112,0.8351,-4.7665,8.8487,8.7500,-8.3300,-6.7900,1000.3777,0.6523,-4.4982,8.6897,1590565080,V
75,2380702,0.8925,-4.3669,9.0497,17.9900,-6.6500,-12.1800,1000.3789,0.7661,-4.3024,8.7791,1590565080,V
75,2375199,0.9404,-4.0032,9.1119,7.6300,0.3500,3.9900,1000.3793,0.7819,-4.1891,8.8324,1590565080,V
75,2368980,1.4788,-3.9099,9.1884,37.6600,4.7600,-13.2300,1000.3789,0.8768,-3.6120,9.0750,1590565080,V
75,2360611,1.0074,-2.6680,8.9324,19.0400,14.3500,-11.6900,1000.3788,0.8020,-3.0057,9.3002,1590565080,V
75,2352045,0.6939,-4.0893,8.4706,15.8900,6.5100,-7.1400,1000.3798,0.7362,-2.9610,9.3199,1590565080,V
75,2346574,1.2012,-2.7829,9.6694,11.3400,7.5600,-9.0300,1000.3802,0.7608,-2.6843,9.4014,1590565080,V
75,2352394,0.7872,-2.3617,9.4062,-29.2600,13.0900,0.2100,1000.3799,0.6937,-2.7095,9.3994,1590565080,V
75,2356793,0.5623,-2.6895,9.0903,-30.8000,8.8200,5.7400,1000.3801,0.6200,-2.8618,9.3593,1590565080,V
75,2359288,-0.0646,-3.6203,9.4301,-16.3100,12.2500,6.5100,1000.3804,0.3789,-2.7765,9.3978,1590565081,V
75,2361581,-0.0144,-3.7328,9.4397,-14.3500,9.9400,2.5200,1000.3805,0.2172,-2.6320,9.4444,1590565081,V
75,2364578,-0.3876,-3.9553,9.5306,-15.6100,0.6300,6.1600,1000.3806,0.0857,-2.4874,9.4856,1590565081,V
75,2364799,-0.2273,-4.1683,9.1334,-18.6200,-4.6200,9.8700,1000.3807,0.0486,-2.6182,9.4506,1590565081,V
75,2361935,-0.1101,-4.7258,8.6836,-19.0400,-9.8700,10.5000,1000.3809,0.0822,-3.8418,9.0224,1590565081,V
76,2358671,0.0909,-5.1422,8.6501,-12.8800,-5.6700,4.3400,1000.3804,0.1143,-5.2429,8.2867,1590565081,V
75,2356043,-0.0072,-5.0752,8.5591,-7.4200,-4.9700,-1.2600,1000.3793,0.1245,-5.7898,7.9141,1590565081,V
76,2353591,0.3637,-5.0512,8.4084,-11.8300,-0.9800,0.2800,1000.3790,0.1790,-5.6310,8.0269,1590565081,V
75,2352555,0.2871,-5.2140,8.4706,-7.9100,-1.7500,-4.5500,1000.3778,0.2271,-5.4272,8.1648,1590565081,V
76,2352255,0.6245,-5.3982,8.1428,-9.7300,-2.1000,-3.4300,1000.3770,0.3323,-5.4532,8.1439,1590565081,V
76,2351799,-0.1101,-5.2546,8.4395,5.8800,2.5900,-11.3400,1000.3758,0.2601,-4.8785,8.5031,1590565082,V
76,2349937,1.1174,-5.3312,7.6092,-4.8300,12.3200,5.8100,1000.3752,0.3396,-4.8688,8.5059,1590565082,V
76,2346160,0.1675,-6.1161,8.3629,-3.8500,17.2200,-6.2300,1000.3748,0.1911,-4.0772,8.9169,1590565082,V
76,2343575,-0.1627,-5.2044,8.7649,-7.3500,2.3100,-10.7800,1000.3745,0.1283,-3.7560,9.0579,1590565082,V
76,2342837,-0.8160,-4.4339,8.5352,-46.7600,-13.6500,10.1500,1000.3743,0.0074,-3.6167,9.1153,1590565082,V
76,2341052,-1.2323,-5.1494,7.5302,-25.4800,-31.2900,40.5300,1000.3734,-0.1465,-3.9451,8.9769,1590565082,V
76,2337364,-0.7059,-6.8722,6.8961,-59.0800,-45.7800,69.5800,1000.3719,-0.1835,-4.2009,8.8594,1590565082,V
76,2331474,-0.1699,-8.0495,5.6542,-83.7200,-44.3100,66.5700,1000.3706,-0.2142,-4.9184,8.4814,1590565082,V
76,2326108,-0.0646,-10.1312,4.5248,14.1400,-37.8700,35.7700,1000.3684,-0.0501,-4.7323,8.5891,1590565082,V
76,2321086,0.1292,-8.5567,4.8981,17.9200,-3.1500,7.2800,1000.3673,-0.0094,-4.6876,8.6138,1590565082,V
76,2315498,-0.2991,-8.1260,5.6710,6.5100,-1.4000,7.9100,1000.3676,-0.1055,-4.8179,8.5409,1590565083,V
75,2309908,-0.4403,-7.9657,5.8146,4.9700,7.5600,-2.1000,1000.3685,-0.2442,-5.1170,8.3622,1590565083,V
75,2305150,-0.5408,-7.6068,6.2955,5.3200,8.9600,-7.4200,1000.3699,-0.3581,-5.5099,8.1045,1590565083,V
75,2300028,-0.7418,-7.7504,6.2955,18.1300,3.8500,-10.7800,1000.3711,-0.4363,-5.9456,7.7865,1590565083,V
75,2294277,-0.2465,-7.9274,5.8863,35.6300,16.3100,-15.8900,1000.3721,-0.4354,-6.6608,7.1843,1590565083,V
75,2287867,-0.3446,-7.5254,6.9224,26.3200,20.7900,-30.2400,1000.3732,-0.3417,-7.9036,5.7954,1590565083,V
75,2283525,-0.8949,-6.3864,7.8054,19.3200,4.2700,-30.9400,1000.3740,-0.2778,-8.1985,5.3739,1590565083,V
75,2280695,-0.2154,-5.6542,7.5685,34.2300,0.2800,-19.3900,1000.3745,-0.3738,-1.5253,9.6801,1590565083,V
75,2274473,0.3063,-6.3266,7.2885,11.4800,-5.7400,-10.7100,1000.3750,-0.1910,-1.9692,9.6050,1590565083,V
75,2270143,-0.0861,-6.7502,7.4943,1.1200,2.1700,-10.0800,1000.3751,-0.1600,-2.2539,9.5428,1590565083,V
75,2264282,0.6006,-5.0321,7.5087,29.9600,-0.7000,-16.1700,1000.3745,0.0511,-3.3569,9.2141,1590565084,V
75,2252215,0.7466,-6.2285,7.6714,13.6500,-1.6800,-6.3000,1000.3741,0.2334,-4.1663,8.8746,1590565084,V
75,2242631,0.2800,-6.2883,8.8582,33.0400,11.7600,-7.0000,1000.3724,0.1361,-3.4034,9.1961,1590565084,V
75,2233099,0.6508,-4.7306,8.3342,19.7400,-4.6200,-14.7700,1000.3708,0.3142,-3.7573,9.0529,1590565084,V
76,2226806,0.8351,-4.8885,8.0997,16.4500,-4.2000,-13.5800,1000.3700,0.4880,-3.9963,8.9421,1590565084,V
75,2222126,0.8710,-4.0199,8.5735,24.7100,23.1700,-14.1400,1000.3693,0.3974,-3.2706,9.2367,1590565084,V
76,2214590,1.1868,-3.6371,8.8439,-5.8800,12.8800,-6.3000,1000.3686,0.4760,-3.2497,9.2403,1590565084,V
76,2205134,0.2154,-4.4076,7.4441,6.6500,14.1400,-0.3500,1000.3676,0.3156,-2.9651,9.3423,1590565084,V
76,2195562,-0.3230,-5.6016,10.6170,-25.3400,20.5800,1.7500,1000.3666,0.0678,-2.6241,9.4488,1590565084,V
76,2192283,0.9978,-4.2209,7.0181,4.0600,6.8600,6.1600,1000.3658,0.1253,-2.7813,9.4031,1590565084,V
76,2190455,0.9858,-5.1350,10.4303,-8.3300,-29.2600,-9.0300,1000.3657,0.5147,-3.8103,9.0215,1590565085,V
76,2191317,0.3541,-5.8576,8.5472,18.9700,-28.4200,-24.8500,1000.3649,0.7586,-4.3013,8.7803,1590565085,V
76,2192648,2.2038,-5.2929,8.6668,21.2800,-23.0300,-40.8100,1000.3640,1.2818,-4.3841,8.6780,1590565085,V
76,2195417,3.0580,-5.2187,8.9731,-3.9200,-32.3400,-37.2400,1000.3627,1.8282,-4.5700,8.4819,1590565085,V
76,2209793,2.8259,-4.0343,8.1978,-2.3800,-25.9000,-34.4400,1000.3615,2.3288,-4.5020,8.3952,1590565085,V
76,2223071,1.9214,-3.7161,7.3627,-38.7100,-11.6900,-14.4900,1000.3607,2.5136,-4.7997,8.1741,1590565085,V
76,2234308,0.6365,-2.9623,7.0540,-106.3300,3.4300,60.7600,1000.3592,2.1421,-5.8890,7.5433,1590565085,V
76,2237763,0.1938,-6.3793,5.6925,-135.1700,-1.2600,119.0000,1000.3573,1.2554,-7.9338,5.6258,1590565085,V
76,2235396,-0.5288,-9.7627,2.7541,-198.1700,-13.7200,145.3200,1000.3555,0.2824,-6.7794,7.0803,1590565085,V
76,2228876,-0.8327,-11.2104,0.2130,-89.2500,-12.9500,108.9900,1000.3546,-0.8716,-7.9517,5.6729,1590565085,V
76,2225072,-2.1464,-11.1912,0.7872,-13.8600,-2.6600,64.0500,1000.3550,-1.6369,-8.3963,4.7951,1590565086,V
76,2225377,-3.0628,-9.0425,1.1222,-29.1900,-9.1000,46.3400,1000.3553,-2.3216,-8.8305,3.5780,1590565086,V
77,2225289,-4.8359,-8.2481,1.6606,11.6900,-19.3900,39.7600,1000.3570,-2.9506,-8.7256,3.3659,1590565086,V
76,2226521,-6.2357,-8.7529,2.3593,4.8300,-35.9800,28.8400,1000.3592,-3.2988,-8.5250,3.5515,1590565086,V
77,2226364,-5.1589,-8.6333,1.8233,74.1300,2.1000,23.5200,1000.3618,-3.8269,-8.2240,3.7272,1590565086,V
76,2224433,-5.7787,-7.1952,2.8140,2.1700,-17.7100,19.9500,1000.3651,-4.2418,-8.0278,3.7056,1590565086,V
76,2223935,-5.7308,-7.4106,2.9192,19.6000,-9.3100,12.7400,1000.3683,-4.5815,-7.8158,3.7540,1590565086,V
76,2222609,-5.9605,-7.0708,3.1202,10.4300,-8.1900,9.1000,1000.3717,-4.8795,-7.6284,3.7642,1590565086,V
76,2220718,-5.8026,-7.2909,3.1657,11.6200,-11.5500,7.7000,1000.3752,-5.0728,-7.4924,3.7817,1590565086,V
76,2218601,-6.0203,-6.8339,3.8764,7.9100,-6.2300,13.2300,1000.3782,-5.3210,-7.2554,3.9007,1590565086,V
76,2215590,-6.0299,-6.6712,3.6706,2.3100,-4.4800,12.1100,1000.3817,-5.5294,-7.0892,3.9166,1590565087,V
76,2210741,-6.2166,-6.4869,3.3547,1.1200,-4.4800,7.4900,1000.3857,-5.7158,-6.9714,3.8600,1590565087,V
76,2207261,-6.1496,-6.4774,3.8859,-7.5600,-7.9100,0.8400,1000.3884,-5.7637,-6.9265,3.8695,1590565087,V
76,2205392,-5.8887,-6.9129,3.8572,3.9900,-1.4000,2.0300,1000.3900,-5.7955,-6.8866,3.8933,1590565087,V
75,2203450,-6.2764,-6.4798,3.8644,8.8200,0.2800,4.2700,1000.3914,-5.9356,-6.7381,3.9417,1590565087,V
76,2201139,-6.2094,-6.4606,4.1994,10.8500,1.7500,7.5600,1000.3920,-6.0551,-6.5708,4.0412,1590565087,V
76,2198920,-6.4008,-6.2979,3.9482,4.4800,-2.1000,8.8200,1000.3930,-6.1741,-6.4468,4.0608,1590565087,V
76,2196541,-6.4223,-6.1663,4.0845,2.1000,-9.1000,4.5500,1000.3937,-6.2122,-6.3683,4.1260,1590565087,V
75,2193231,-6.2333,-6.2189,4.5607,-1.1200,-11.3400,6.1600,1000.3943,-6.1848,-6.3093,4.2558,1590565087,V
75,2189611,-6.3769,-5.9294,4.2640,1.7500,-9.1700,7.9800,1000.3937,-6.2428,-6.2034,4.3262,1590565087,V
75,2186586,-6.3601,-5.8337,4.7043,0.7700,-10.5700,8.6800,1000.3935,-6.2656,-6.0844,4.4601,1590565088,V
75,2184713,-6.2931,-5.7476,4.9029,2.8700,-10.6400,8.8200,1000.3924,-6.2716,-5.9599,4.6170,1590565088,V
75,2182982,-6.3864,-5.6853,4.7139,-1.4000,-9.3800,5.8100,1000.3914,-6.2858,-5.8926,4.6836,1590565088,V
76,2180916,-6.3147,-5.8002,4.9555,-5.6700,-9.0300,3.0800,1000.3904,-6.2481,-5.8817,4.7474,1590565088,V
75,2178942,-6.1687,-5.6136,5.1446,1.0500,-4.4800,2.6600,1000.3901,-6.2288,-5.8127,4.8564,1590565088,V
75,2177006,-6.2142,-5.6088,5.0991,1.4000,-1.6100,1.3300,1000.3900,-6.2278,-5.7592,4.9210,1590565088,V
75,2173680,-6.3194,-5.6112,5.0824,-1.5400,-0.4900,2.6600,1000.3906,-6.2509,-5.7160,4.9420,1590565088,V
76,2169448,-6.2692,-5.6064,5.1374,-1.0500,0.5600,-1.1200,1000.3905,-6.2452,-5.6997,4.9680,1590565088,V
76,2165732,-6.1687,-5.2738,5.3073,-2.5900,3.0800,-3.9900,1000.3898,-6.2400,-5.6600,5.0197,1590565088,V
76,2163321,-6.2477,-5.6160,5.0249,-1.6100,4.4100,-1.7500,1000.3891,-6.2561,-5.6676,4.9909,1590565088,V
76,2161083,-6.0778,-5.8337,5.1135,2.5200,6.0900,-0.9100,1000.3880,-6.2417,-5.6836,4.9907,1590565089,V
77,2158761,-6.3506,-5.8026,4.7306,2.3100,5.7400,-0.4900,1000.3876,-6.2904,-5.6934,4.9180,1590565089,V
76,2156934,-6.4176,-5.7165,4.8024,-2.1000,0.7700,-0.8400,1000.3875,-6.3092,-5.7082,4.8767,1590565089,V
77,2155622,-6.2764,-5.8935,4.9196,-3.6400,0.9800,-0.7000,1000.3878,-6.2879,-5.7532,4.8512,1590565089,V
77,2152630,-6.5324,-5.5825,4.8335,-2.3800,-0.4900,0.8400,1000.3885,-6.3308,-5.7207,4.8337,1590565089,V
77,2149295,-6.2166,-5.7141,5.1015,1.6100,-1.6800,-0.1400,1000.3896,-6.2926,-5.7077,4.8986,1590565089,V
77,2146982,-6.2118,-5.9629,4.8981,-2.0300,-0.4900,-1.0500,1000.3900,-6.2548,-5.7633,4.8818,1590565089,V
77,2145161,-6.2979,-5.6327,5.0441,-4.2700,-1.3300,-1.8200,1000.3905,-6.2405,-5.7658,4.8971,1590565089,V
77,2144025,-6.0299,-5.8816,5.1613,-4.5500,5.6000,-2.3100,1000.3909,-6.2027,-5.8125,4.8899,1590565089,V
77,2143108,-6.2237,-5.6375,4.8526,-7.2100,5.8100,-6.5800,1000.3912,-6.2093,-5.8580,4.8269,1590565089,V
77,2142097,-6.0227,-5.9318,4.9053,-6.3000,13.3700,-13.5800,1000.3910,-6.1627,-5.9734,4.7445,1590565090,V
78,2140034,-6.0323,-6.1807,4.3573,-11.4100,17.7100,-21.4200,1000.3898,-6.1097,-6.1916,4.5284,1590565090,V
77,2136425,-6.0084,-6.4582,4.0869,-20.0200,22.2600,-29.6100,1000.3898,-6.0109,-6.4948,4.2258,1590565090,V
77,2132472,-5.6423,-7.1856,3.5725,-21.4200,25.9700,-32.9000,1000.3899,-5.8302,-6.8828,3.8479,1590565090,V
77,2129282,-5.2259,-7.7145,3.0820,-16.7300,32.4100,-32.7600,1000.3903,-5.6291,-7.2522,3.4481,1590565090,V
78,2126626,-5.2020,-7.8006,2.3809,-18.8300,33.3900,-34.9300,1000.3905,-5.4542,-7.5863,2.9784,1590565090,V
77,2123901,-4.6469,-8.5065,2.1344,-17.6400,34.6500,-25.4800,1000.3909,-5.2431,-7.8809,2.5636,1590565090,V
77,2121252,-4.6038,-8.4586,1.0217,-18.8300,36.9600,-22.0500,1000.3918,-5.1759,-8.0849,2.0038,1590565090,V
77,2118531,-5.0249,-8.5208,0.8901,-40.1100,29.1900,-11.9700,1000.3926,-5.0118,-8.3077,1.4265,1590565090,V
78,2114175,-4.5607,-10.0187,0.4068,1.4700,23.7300,-17.1500,1000.3937,-5.0990,-8.2871,1.2223,1590565090,V
77,2110397,-3.0221,-8.5687,0.2249,-24.8500,2.9400,-12.3200,1000.3945,-4.4921,-8.6754,0.8537,1590565091,V
77,2106448,-2.8116,-9.7986,-1.0146,-6.1600,-3.0800,-10.5700,1000.3951,-4.7394,-8.5753,0.4164,1590565091,V
77,2104127,-3.0628,-9.4828,-1.0839,4.9700,2.8700,-12.6000,1000.3971,0.7748,-9.7744,0.1778,1590565091,V
78,2102036,-3.1944,-8.3342,-0.7753,26.8100,3.7100,-6.8600,1000.3988,-0.3413,-9.7983,0.2168,1590565091,V
77,2100520,-3.8644,-8.4012,-0.9739,-0.6300,4.7600,7.8400,1000.4005,-1.9741,-9.6058,-0.0465,1590565091,V
77,2099379,-3.7256,-8.3366,-0.6437,2.3100,12.0400,21.7700,1000.4023,-2.6449,-9.4413,-0.1939,1590565091,V
78,2098428,-5.6782,-12.3948,0.0144,27.8600,3.5000,-13.5800,1000.4036,-1.5402,-9.6844,0.1025,1590565091,V
77,2096138,-3.6754,-9.4205,0.6652,10.2200,3.2900,4.8300,1000.4047,-0.4205,-9.7934,0.2876,1590565091,V
78,2092904,-3.9625,-9.2195,-0.0885,-3.9900,0.6300,5.0400,1000.4063,-0.8314,-9.7697,0.1786,1590565091,V
78,2089529,-4.1252,-8.5831,0.4283,6.8600,1.9600,0.2100,1000.4083,0.2222,-9.8006,0.2641,1590565091,V
78,2087187,-3.7448,-9.0520,0.2943,-1.6800,-0.8400,-2.0300,1000.4106,0.9343,-9.7593,0.2321,1590565092,V
78,2084719,-3.7065,-8.9707,0.3661,0.4200,0.7700,1.4700,1000.4129,-6.3416,-7.4774,0.2073,1590565092,V
78,2082637,-3.8788,-8.8487,0.4427,5.2500,1.7500,0.4200,1000.4150,-5.7438,-7.9429,0.2989,1590565092,V
78,2080703,-3.8477,-8.9683,0.5240,4.5500,2.2400,-0.9100,1000.4171,-5.3133,-8.2338,0.3784,1590565092,V
78,2078662,-3.8070,-8.9468,0.4475,3.2200,1.5400,2.0300,1000.4186,-5.0759,-8.3805,0.4167,1590565092,V
78,2075899,-3.8357,-8.9444,0.5719,3.2900,0.5600,1.8200,1000.4199,-4.8331,-8.5197,0.4752,1590565092,V
78,2073691,-3.9290,-8.8941,0.5958,1.9600,-1.2600,2.3100,1000.4208,-4.6314,-8.6284,0.5208,1590565092,V
78,2071755,-3.8596,-8.8798,0.6365,3.7100,-0.9100,0.4900,1000.4215,-4.5180,-8.6848,0.5760,1590565092,V
78,2070426,-3.9888,-8.8391,0.7394,0.4200,-2.8000,-2.1000,1000.4215,-4.3307,-8.7767,0.6201,1590565092,V
78,2069261,-3.7926,-8.9563,0.8830,5.8100,2.7300,-1.8200,1000.4213,-4.3270,-8.7718,0.7097,1590565092,V
78,2068602,-4.1827,-8.4993,0.9332,3.5000,3.6400,1.1200,1000.4207,-4.4228,-8.7183,0.7753,1590565093,V
78,2067696,-2.9671,-9.7292,0.4594,-14.5600,-3.9900,2.5200,1000.4201,-3.8079,-9.0163,0.6141,1590565093,V
78,2065935,-4.5224,-8.4969,1.1749,5.3900,6.6500,2.5200,1000.4198,-4.1785,-8.8399,0.7535,1590565093,V
78,2064579,-3.7448,-8.9515,0.3326,-1.4000,-0.6300,-1.9600,1000.4203,-4.0718,-8.8970,0.6595,1590565093,V
78,2063113,-4.0104,-8.7218,0.9715,-1.4700,1.0500,-2.8000,1000.4211,-4.0255,-8.9142,0.7093,1590565093,V
78,2062361,-3.8955,-9.1190,0.3422,-5.6000,0.5600,-4.0600,1000.4221,-3.8495,-9.0003,0.5885,1590565093,V
78,2061418,-3.6993,-8.7027,1.1318,5.3200,5.3200,-2.6600,1000.4229,-3.9746,-8.9352,0.7309,1590565093,V
78,2060678,-3.1944,-9.4540,0.0742,-12.0400,-10.7800,2.5200,1000.4237,-3.5080,-9.1428,0.5234,1590565093,V
78,2059761,-4.0487,-8.4299,0.8447,10.4300,-4.5500,-2.8700,1000.4247,-3.8295,-9.0020,0.6846,1590565093,V
78,2060433,-3.7089,-9.1071,0.4786,-3.9900,-17.7800,8.4000,1000.4252,-3.6497,-9.0787,0.6534,1590565093,V
78,2058859,-3.4744,-9.0832,1.5793,-0.7000,-7.2100,7.7700,1000.4252,-3.6535,-9.0605,0.8547,1590565094,V
78,2057922,-4.0941,-8.8343,1.1533,12.9500,-2.5900,1.1900,1000.4247,-3.9220,-8.9299,1.0225,1590565094,V
78,2057444,-3.7878,-8.8582,1.3831,3.6400,2.5900,3.4300,1000.4247,-3.9902,-8.8877,1.1217,1590565094,V
78,2056378,-4.1204,-8.7171,1.4501,1.3300,4.4100,2.5200,1000.4249,-4.0865,-8.8348,1.1903,1590565094,V
78,2055149,-3.9840,-8.9659,1.2730,8.3300,11.3400,-4.6900,1000.4246,-4.1867,-8.7816,1.2353,1590565094,V
78,2054996,-4.0893,-8.6381,1.2203,4.8300,7.4900,-2.2400,1000.4240,-4.2682,-8.7399,1.2516,1590565094,V
78,2054655,-4.0152,-8.6477,1.4070,-6.3000,-5.8100,-4.6900,1000.4243,-4.0791,-8.8299,1.2508,1590565094,V
78,2053985,-3.9529,-9.0305,0.7537,-5.7400,-9.5200,2.6600,1000.4241,-3.9536,-8.9028,1.1308,1590565094,V
78,2051921,-5.7045,-8.2457,1.2203,12.9500,-1.8900,-5.6700,1000.4241,-4.3591,-8.6954,1.2485,1590565094,V
78,2050441,-4.7115,-8.8654,0.8064,1.3300,-5.0400,9.8700,1000.4243,-4.4678,-8.6487,1.1870,1590565094,V
78,2047735,-3.7878,-9.6144,1.5075,29.9600,17.0800,4.4100,1000.4241,-4.7416,-8.4679,1.4081,1590565095,V
78,2046284,-2.6656,-9.0209,2.5603,58.4500,54.6000,10.7100,1000.4236,-5.0852,-8.1642,1.9121,1590565095,V
78,2047483,-4.7306,-7.5805,3.9936,141.4000,75.5300,-16.5200,1000.4240,-5.8784,-7.3342,2.7971,1590565095,V
78,2050693,-3.8381,-6.8148,4.3023,69.0900,78.8200,-1.3300,1000.4244,-6.0736,-7.0104,3.1838,1590565095,V
77,2052313,-4.3573,-6.9775,4.3669,49.9100,72.1000,-22.8900,1000.4238,-6.0732,-6.9100,3.3970,1590565095,V
78,2052376,-4.1659,-6.7023,4.0702,47.3900,65.3100,-37.1000,1000.4233,-5.9391,-6.9324,3.5833,1590565095,V
77,2052548,-6.4104,-7.6307,4.0128,44.9400,48.3700,-42.7700,1000.4225,-5.9717,-6.8914,3.6080,1590565095,V
77,2053106,-5.7165,-6.6066,3.2806,9.8000,17.4300,-31.7800,1000.4215,-5.9049,-6.9781,3.5508,1590565095,V
78,2052686,-5.2594,-7.1330,3.1537,-33.8800,7.2100,-9.0300,1000.4207,-5.7649,-7.2162,3.2960,1590565095,V
78,2051040,-5.0082,-8.1595,3.0413,-39.5500,38.5000,23.3800,1000.4195,-5.8889,-7.2994,2.8654,1590565095,V
78,2049774,-5.6495,-7.7910,3.5868,27.5100,40.6700,15.7500,1000.4182,-6.1907,-7.0173,2.9330,1590565096,V
78,2049253,-5.9868,-7.4728,3.4265,2.8000,3.4300,21.2800,1000.4167,-6.2655,-6.9199,3.0047,1590565096,V
78,2047812,-5.9749,-7.7623,2.5460,-33.1800,-13.4400,22.1200,1000.4153,-6.1574,-7.1031,2.7934,1590565096,V
78,2045028,-5.9007,-7.2215,2.0100,-10.1500,-16.2400,13.5100,1000.4138,-6.1149,-7.1867,2.6701,1590565096,V
78,2042598,-6.7908,-6.4702,1.6032,-35.4200,-30.3800,29.3300,1000.4121,-6.1602,-7.2365,2.4198,1590565096,V
77,2040043,-7.1210,-7.2120,1.4453,-70.9800,-28.9100,33.7400,1000.4115,-5.9417,-7.5575,1.9370,1590565096,V
78,2037610,-6.6449,-6.2572,2.2301,14.7000,-3.9900,31.1500,1000.4111,-6.4277,-7.0851,2.1579,1590565096,V
78,2037120,-7.4273,-5.7500,2.9264,-10.4300,-7.6300,30.6600,1000.4111,-6.7778,-6.6941,2.3285,1590565096,V
78,2036593,-7.5470,-6.1711,2.8642,-25.4100,-11.2700,21.9800,1000.4120,-6.8636,-6.5955,2.3581,1590565096,V
78,2036152,-7.1043,-6.2309,3.1178,-1.4700,-2.1000,25.9000,1000.4124,-7.0537,-6.3328,2.5122,1590565096,V
77,2035262,-7.3771,-6.2405,3.4672,15.8200,1.9600,30.0300,1000.4131,-7.3096,-5.9395,2.7317,1590565097,V
77,2033954,-7.3173,-6.3410,3.3212,30.1000,6.1600,19.3900,1000.4138,-7.4755,-5.6427,2.9064,1590565097,V
77,2032983,-7.2526,-5.7212,2.8116,31.7100,12.7400,-1.5400,1000.4152,-7.5802,-5.4777,2.9505,1590565097,V
77,2032046,-7.6187,-4.8838,1.9143,-19.7400,15.2600,-14.1400,1000.4161,-7.6407,-5.5678,2.6059,1590565097,V
77,2032173,-7.7815,-4.0798,0.4403,-53.4100,40.8100,-31.2900,1000.4172,-7.6547,-5.8382,1.8686,1590565097,V
77,2035446,-7.9059,-4.0750,-0.3829,-67.9000,63.4200,-15.2600,1000.4174,-7.9257,-5.7253,0.7582,1590565097,V
77,2040392,-8.7841,-4.3310,-1.3687,-54.4600,55.8600,11.8300,1000.4178,-7.5786,-6.2199,-0.2201,1590565097,V
77,2045290,-9.3942,-4.2233,-1.6534,-47.1800,31.5700,35.6300,1000.4182,-8.4350,-4.9282,-0.8573,1590565097,V
77,2048650,-9.2913,-3.7304,-2.0650,-19.3200,7.2800,53.1300,1000.4185,-8.8387,-4.0871,-1.1591,1590565097,V
78,2051398,-8.4132,-3.4552,-3.0485,-38.1500,-14.1400,48.3000,1000.4191,-9.1304,-3.2757,-1.4407,1590565097,V
78,2052583,-9.1454,-2.0698,-3.7519,-62.7900,-30.8700,40.3900,1000.4198,-9.3814,-2.3558,-1.6154,1590565098,V
78,2054939,-9.4038,-2.1368,-3.2112,-35.4900,-12.7400,61.5300,1000.4215,-9.5254,-1.6708,-1.6263,1590565098,V
78,2055135,-9.7340,-4.4506,-2.2086,-16.1000,1.6800,17.1500,1000.4239,-9.5048,-1.7345,-1.6794,1590565098,V
78,2053812,-10.4925,-0.4379,-2.7900,-1.2600,-15.0500,25.7600,1000.4268,-9.6103,-1.2548,-1.4958,1590565098,V
78,2051518,-9.1454,-0.0957,-2.0937,-5.5300,-12.9500,4.8300,1000.4290,-9.6525,-0.9305,-1.4608,1590565098,V
78,2049225,-9.4947,-0.4786,-1.9214,12.6000,-7.2100,14.8400,1000.4314,-9.6876,-0.7036,-1.3509,1590565098,V
78,2046805,-9.6957,0.1388,-1.3807,8.0500,-3.4300,7.9100,1000.4337,-9.7205,-0.4471,-1.2177,1590565098,V
78,2045272,-10.0140,0.0167,-1.2897,3.8500,-9.7300,5.7400,1000.4357,-9.7485,-0.2792,-1.0290,1590565098,V
78,2044065,-9.9494,0.2512,-1.3831,4.7600,-12.8100,3.1500,1000.4382,-9.7712,-0.1325,-0.8222,1590565098,V
78,2043237,-9.7508,0.1651,-1.1653,5.5300,-8.6100,0.4900,1000.4403,-9.7826,-0.0639,-0.6836,1590565098,V
78,2042529,-9.6933,0.4044,-1.3137,14.0000,-1.4000,3.9900,1000.4424,-9.8016,0.0517,-0.3103,1590565099,V
78,2042411,-9.7627,0.3039,-0.9571,17.0800,-3.4300,0.1400,1000.4437,-9.7997,0.0966,0.3570,1590565099,V
78,2042337,-9.7555,0.2034,-0.8542,17.2900,-0.7000,-0.3500,1000.4448,-9.6788,0.1032,1.5751,1590565099,V
77,2042548,-10.1312,0.9547,-0.7466,19.7400,-5.7400,-6.1600,1000.4461,-9.7313,0.1926,-1.1979,1590565099,V
78,2041958,-9.4804,0.0574,-0.5719,12.3200,-1.8900,-9.4500,1000.4469,-9.7775,0.0750,-0.7524,1590565099,V
78,2041582,-9.8489,-0.6365,-0.8447,15.6100,5.5300,-14.8400,1000.4477,-9.6247,-0.1932,-1.8705,1590565099,V
78,2042217,-10.4495,-0.9906,-0.5791,15.8900,8.0500,-28.9800,1000.4481,-9.6670,-0.6050,-1.5342,1590565099,V
78,2043408,-10.2317,-1.1055,-0.2177,0.9800,2.0300,-33.6000,1000.4479,-9.6607,-0.9927,-1.3624,1590565099,V
78,2044997,-10.1791,-2.3091,-0.1866,-19.3200,-5.8800,-33.6700,1000.4482,-9.6218,-1.4177,-1.2572,1590565099,V
78,2046237,-9.7651,-2.4957,-0.1172,-8.6100,-4.4100,-44.9400,1000.4490,-9.5544,-1.8870,-1.1503,1590565099,V
78,2046682,-9.8680,-3.2375,-0.1938,-13.6500,-10.0100,-50.8900,1000.4495,-9.4618,-2.3591,-1.0393,1590565100,V
78,2045814,-9.0640,-4.1252,-0.6102,-25.4800,-11.6200,-69.9300,1000.4496,-9.2586,-3.0374,-1.1061,1590565100,V
78,2044645,-8.3222,-4.5488,-1.4333,-30.8700,-15.1200,-86.2400,1000.4500,-8.9206,-3.8391,-1.3617,1590565100,V
78,2044001,-7.5852,-5.4987,-1.2395,-49.0700,-22.7500,-85.7500,1000.4503,-8.5554,-4.5406,-1.5356,1590565100,V
78,2043411,-6.5444,-5.8600,-1.3711,-40.8100,-34.7200,-75.3200,1000.4500,-8.2282,-5.0900,-1.5994,1590565100,V
78,2042563,-5.7930,-6.7454,-1.8473,-44.7300,-48.5800,-52.9900,1000.4495,-7.9555,-5.4836,-1.6767,1590565100,V
78,2041708,-5.3504,-7.1904,-2.3378,-31.2900,-53.1300,-28.0700,1000.4495,-7.7618,-5.7343,-1.7446,1590565100,V
78,2041145,-5.4604,-7.7097,-2.1751,-22.4700,-45.1500,-9.7300,1000.4484,-7.6699,-5.8608,-1.7302,1590565100,V
78,2040921,-5.1565,-8.0806,-2.0483,-14.9800,-38.6400,-5.7400,1000.4470,-7.5378,-6.0338,-1.7161,1590565100,V
78,2040535,-5.0393,-8.0160,-2.0626,-28.7000,-44.6600,-3.7100,1000.4458,-7.4599,-6.1253,-1.7323,1590565100,V
78,2039456,-4.6038,-8.4706,-1.5529,-24.1500,-31.0100,-10.0100,1000.4445,-7.2639,-6.3560,-1.7342,1590565101,V
78,2038902,-5.7284,-9.1167,-0.8877,-13.2300,-27.9300,-26.3900,1000.4430,-7.2260,-6.4450,-1.5549,1590565101,V
78,2038942,-5.3719,-8.6620,0.2417,3.6400,-34.7200,-32.2700,1000.4420,0.5391,-9.6424,-1.7040,1590565101,V
78,2038892,-4.5153,-8.5161,0.7466,12.8800,-39.3400,-28.4900,1000.4411,0.2617,-9.7291,-1.2027,1590565101,V
78,2038126,-3.4193,-9.0209,0.8949,-4.8300,-34.4400,-21.9100,1000.4399,-0.3095,-9.7641,-0.8588,1590565101,V
79,2036619,-2.2062,-10.0044,0.7059,-0.1400,-19.6700,-23.5900,1000.4384,-0.5946,-9.7720,-0.5692,1590565101,V
78,2034704,-1.0409,-10.4303,0.7442,27.7900,-2.1000,-53.9700,1000.4367,-0.8269,-9.7710,-0.1164,1590565101,V
78,2033159,-0.3039,-11.6913,0.8566,40.2500,27.3000,-82.5300,1000.4348,-0.5648,-9.7876,0.2324,1590565101,V
79,2031292,0.4092,-10.9161,1.2060,109.4100,32.6900,-127.7500,1000.4329,-3.5465,-8.1172,4.2076,1590565101,V
78,2031192,0.8447,-10.5452,1.9525,119.4900,43.1900,-149.3100,1000.4308,-3.4736,-6.1297,6.8214,1590565101,V
78,2035487,3.0843,-7.9202,3.1107,94.2900,62.1600,-150.2200,1000.4292,-2.6815,-4.9349,8.0391,1590565102,V
78,2054110,2.9599,-4.5870,5.7212,132.7900,69.6500,-111.9300,1000.4272,-3.0543,-3.0888,8.7921,1590565102,V
78,2082067,0.8734,-3.5701,8.6501,111.6500,54.1800,-66.0100,1000.4246,-3.0155,-1.5640,9.1995,1590565102,V
78,2115442,1.0193,-0.3733,9.0090,105.2100,14.4200,-65.1700,1000.4211,-2.4657,-0.7065,9.4653,1590565102,V
78,2140267,1.9167,0.6461,9.1645,53.8300,-1.4700,-41.3000,1000.4177,-1.5958,-0.4892,9.6636,1590565102,V
78,2157188,3.6778,2.0483,8.4467,-15.6800,17.7800,-21.2100,1000.4127,-0.3742,-0.5113,9.7862,1590565102,V
78,2168268,2.3163,3.7352,10.3035,19.6000,17.8500,-0.7700,1000.4072,-0.6915,-0.1115,9.7816,1590565102,V
78,2173035,3.2255,2.7135,9.3368,54.6700,10.9900,4.6900,1000.4006,2.2436,0.5854,9.5286,1590565102,V
78,2177565,0.9882,2.3091,11.3635,-58.2400,-16.9400,17.2900,1000.3928,-0.0061,0.1491,9.8055,1590565102,V
78,2185942,0.0239,1.7157,8.6644,-87.7800,-102.8300,85.8200,1000.3853,3.2364,0.1111,9.2565,1590565102,V
78,2194006,1.5458,-0.0431,3.8477,-21.5600,-46.6900,145.4600,1000.3781,5.0170,-0.4182,8.4158,1590565103,V
78,2198349,4.0487,-4.7402,4.3047,3.7100,129.5700,182.9800,1000.3713,1.3958,-1.0877,9.6457,1590565103,V
78,2207180,0.6102,-6.9846,12.8016,26.2500,161.7000,98.3500,1000.3652,-0.7583,-0.4991,9.7645,1590565103,V
78,2227071,-0.3278,-5.9055,12.6820,-11.5500,43.4000,50.8200,1000.3605,-1.0992,-0.4370,9.7351,1590565103,V
78,2247342,-2.4215,-3.7376,9.6431,13.6500,37.0300,14.9100,1000.3572,-1.5912,0.2747,9.6728,1590565103,V
78,2265721,-2.7087,-2.3569,9.2052,9.8700,29.5400,16.5200,1000.3535,-1.8556,1.6273,9.4910,1590565103,V
78,2282928,-2.9599,-2.6297,9.9685,1.6100,9.3800,26.9500,1000.3497,-1.4011,-5.7872,7.7920,1590565103,V
78,2300616,-3.9505,-1.9119,9.2267,-16.6600,2.7300,20.0900,1000.3463,-2.1219,-4.5153,8.4428,1590565103,V
78,2312292,-4.4865,-2.7254,8.8702,7.9100,-4.6200,34.9300,1000.3443,-2.5587,-3.6285,8.7440,1590565103,V
78,2318860,-4.3860,-3.3811,7.7169,-67.6900,-10.4300,52.1500,1000.3430,-3.0721,-3.8454,8.4820,1590565103,V
78,2324758,-3.1753,-3.6012,7.9920,-34.5100,7.2100,45.2200,1000.3420,-3.3853,-3.9440,8.3159,1590565104,V
78,2335230,-3.2782,-2.8929,8.5543,-59.8500,32.5500,39.0600,1000.3410,-3.8999,-4.1231,7.9976,1590565104,V
78,2339001,-4.5655,-2.9599,7.8509,-27.5100,36.3300,56.1400,1000.3404,-4.6137,-3.9516,7.6986,1590565104,V
78,2346299,-6.4223,-2.4479,7.3651,23.6600,41.6500,80.5000,1000.3400,-5.5332,-3.2234,7.4272,1590565104,V
78,2354406,-7.0780,-1.7898,7.1545,-13.0200,39.2000,93.7300,1000.3398,-6.6211,-2.5675,6.7631,1590565104,V
79,2363136,-7.5470,-1.4716,7.4010,9.9400,37.3800,87.2200,1000.3398,-7.5105,-1.7676,6.0530,1590565104,V
79,2369909,-7.4584,-1.4142,6.8818,-18.9700,16.8000,57.8900,1000.3399,-8.0471,-1.3653,5.4361,1590565104,V
79,2373928,-7.4991,-0.8327,6.4534,-12.8800,-6.1600,25.1300,1000.3422,-8.1996,-1.1318,5.2589,1590565104,V
78,2374982,-7.3747,-0.4666,6.3888,-12.6000,-13.5800,-0.8400,1000.3437,-8.1281,-1.0624,5.3828,1590565104,V
79,2374374,-7.0540,-0.0598,6.4798,2.7300,-6.4400,-7.0700,1000.3452,-8.0402,-0.9036,5.5416,1590565104,V
79,2373117,-7.0110,0.3494,7.0421,10.5700,2.6600,-1.4000,1000.3470,-8.0743,-0.6184,5.5312,1590565105,V
79,2372660,-6.9009,0.0502,6.4750,9.3800,2.9400,-0.3500,1000.3485,-8.0709,-0.4502,5.5524,1590565105,V
79,2371659,-7.3292,-0.2130,6.0347,7.9100,12.4600,-4.9000,1000.3505,-7.9411,-0.4056,5.7397,1590565105,V
79,2370651,-7.4871,-0.0790,6.1926,14.2800,8.9600,-21.4200,1000.3519,-7.0726,-0.4021,6.7813,1590565105,V
79,2369693,-7.5039,-0.3278,5.4413,6.5100,10.5000,-32.6200,1000.3525,-6.5378,-0.5081,7.2917,1590565105,V
79,2367154,-7.6164,-0.2273,5.7811,10.9200,21.3500,-39.1300,1000.3530,-6.2129,-0.5596,7.5669,1590565105,V
79,2362351,-8.1236,-0.9667,5.8528,27.0200,26.7400,-45.9200,1000.3538,-6.1636,-0.6997,7.5954,1590565105,V
78,2356266,-8.3151,-1.7946,5.6566,33.8800,22.8200,-67.2700,1000.3547,-6.3085,-1.0623,7.4327,1590565105,V
79,2351025,-8.7027,-3.1944,5.4437,26.4600,20.3000,-81.9700,1000.3558,-6.6038,-1.7638,7.0320,1590565105,V
79,2346919,-8.5065,-5.7308,4.7282,38.9900,12.4600,-115.9900,1000.3575,-6.4489,-2.5545,6.9323,1590565105,V
78,2343881,-7.3508,-6.0682,4.4243,15.6800,18.0600,-147.0700,1000.3596,-6.2805,-3.8848,6.4524,1590565106,V
78,2341960,-5.8337,-9.1047,3.6491,31.4300,29.6800,-141.2600,1000.3618,-5.7884,-4.9261,6.1966,1590565106,V
78,2340091,-4.4602,-7.4943,4.6181,31.7800,16.9400,-124.8800,1000.3633,-5.0514,-5.8217,6.0631,1590565106,V
78,2337577,-3.1322,-7.6786,4.9627,68.1800,23.0300,-106.9600,1000.3649,-4.2798,-6.3172,6.1601,1590565106,V
78,2333342,-1.2610,-6.7071,5.5107,69.3700,27.0900,-76.5100,1000.3661,-3.7124,-6.4254,6.4111,1590565106,V
77,2330686,-0.6461,-5.6973,6.5922,79.5900,23.8000,-31.7800,1000.3673,-3.4576,-6.1518,6.8096,1590565106,V
78,2328095,-2.2804,-4.4674,7.2622,121.3100,40.6000,-16.5200,1000.3676,-3.7402,-5.2867,7.3642,1590565106,V
78,2325206,-4.1755,-2.2684,8.0255,134.0500,44.2400,5.8100,1000.3676,-7.0792,-6.6904,-1.1380,1590565106,V
78,2325475,-4.8933,-1.7133,8.6477,56.9100,43.0500,5.6000,1000.3677,-7.9009,-5.8083,-0.0961,1590565106,V
77,2331716,-4.8431,-0.6652,8.0877,63.9800,45.9200,-11.7600,1000.3667,-8.4727,-4.9066,0.5560,1590565106,V
77,2338747,-4.7306,-0.8997,7.6546,41.4400,17.3600,-5.1800,1000.3648,-8.8077,-4.1041,1.3230,1590565107,V
77,2341480,-5.1326,-0.0885,8.7697,26.3900,9.4500,-6.7200,1000.3636,-9.0123,-3.2559,2.0851,1590565107,V
77,2344509,-4.3358,0.1819,6.5563,66.8500,8.2600,-16.4500,1000.3630,-9.0859,-2.8462,2.3484,1590565107,V
78,2350856,-4.4219,0.3278,7.7599,-5.1800,14.2100,14.9100,1000.3622,-9.1786,-2.0178,2.8021,1590565107,V
77,2350577,-5.8840,2.8881,10.0164,43.4700,10.3600,-18.1300,1000.3618,-9.1722,-1.5058,3.1264,1590565107,V
77,2356462,-4.8120,2.4718,6.2572,14.7000,15.2600,-9.2400,1000.3615,-9.1768,-1.0236,3.3028,1590565107,V
77,2355386,-5.8026,1.2491,7.2598,-17.3600,11.9000,20.7200,1000.3609,-9.0981,-0.4103,3.6369,1590565107,V
77,2354455,-5.8217,0.2106,8.7099,-71.2600,0.4200,9.3800,1000.3599,-9.1739,-0.4215,3.4398,1590565107,V
77,2355242,-5.7811,-0.0694,8.1739,-41.8600,2.1700,9.6600,1000.3588,-9.2114,-0.3917,3.3417,1590565107,V
77,2354306,-5.2187,-0.4570,8.3701,-130.9700,-11.2700,28.0000,1000.3574,-7.4071,-0.7565,6.3822,1590565107,V
77,2352547,-5.8600,-4.9005,9.6909,-98.0700,-66.9200,12.4600,1000.3555,-6.8654,-1.6233,6.8119,1590565108,V
76,2350293,-3.4648,-2.8164,9.0090,-25.9700,-69.9300,-15.4700,1000.3538,-5.4909,-2.2262,7.8144,1590565108,V
77,2352611,-1.6271,-1.6941,9.5282,61.8100,-43.1900,27.0200,1000.3523,-3.9869,-1.7868,8.7797,1590565108,V
77,2352984,-1.6080,-2.1846,9.5019,23.8000,-45.3600,51.6600,1000.3518,-3.0108,-1.5741,9.1993,1590565108,V
77,2355062,-1.7922,-2.1248,8.2481,17.0100,-4.3400,53.3400,1000.3507,-2.9379,-1.4191,9.2480,1590565108,V
76,2356351,-4.3023,-3.4935,7.8820,9.5900,25.3400,44.9400,1000.3495,-3.6774,-1.6722,8.9359,1590565108,V
76,2356797,-7.5733,-3.8883,8.1380,-56.7000,-4.0600,4.2000,1000.3477,-4.4434,-2.2809,8.4394,1590565108,V
76,2357235,-6.8459,-2.2325,6.5779,-100.9400,-50.5400,-74.7600,1000.3466,-4.5787,-3.1435,8.0823,1590565108,V
76,2356245,-4.0534,-2.8714,6.4152,-83.7900,10.7800,-51.8000,1000.3454,-4.6823,-3.9601,7.6527,1590565108,V
76,2354296,-2.8499,-5.7188,7.9179,-87.8500,71.0500,35.7000,1000.3448,-5.0705,-4.7203,6.9411,1590565108,V
76,2351732,-3.2399,-6.8483,9.0018,-33.0400,25.6900,102.7600,1000.3451,-5.5694,-4.5648,6.6569,1590565109,V
76,2349209,-3.5151,-7.6642,5.9892,-140.7700,-39.5500,125.5800,1000.3453,-5.6857,-5.1975,6.0687,1590565109,V
76,2344754,-4.1444,-8.1954,4.6110,-78.4700,-51.6600,73.8500,1000.3456,-5.5802,-5.7058,5.6987,1590565109,V
76,2339551,-4.6301,-7.7791,4.0056,-38.7100,-29.5400,21.3500,1000.3463,-5.4455,-6.1638,5.3408,1590565109,V
76,2332054,-5.2164,-7.2742,3.6897,-52.4300,-27.0200,-4.4100,1000.3472,-5.2924,-6.6843,4.8458,1590565109,V
76,2325286,-4.3765,-7.7192,2.6201,-58.4500,-21.3500,-16.2400,1000.3484,-4.9974,-7.3650,4.1174,1590565109,V
76,2319278,-5.0704,-8.6453,2.0698,-64.6800,2.8000,-18.1300,1000.3508,-4.7378,-7.9963,3.1278,1590565109,V
76,2314802,-4.4483,-8.3940,1.5817,-19.0400,12.4600,-18.6900,1000.3541,-4.4882,-8.3463,2.5231,1590565109,V
76,2310892,-4.4172,-8.8774,0.8997,-40.8100,4.0600,-13.3000,1000.3575,-4.1007,-8.7315,1.7649,1590565109,V
76,2306961,-4.1755,-8.7960,0.3685,-41.0200,-8.9600,-22.1200,1000.3613,-3.5218,-9.0898,1.0689,1590565109,V
76,2303498,-3.5390,-8.9707,-0.1986,-47.3200,-9.7300,-13.6500,1000.3651,-2.7647,-9.4027,0.3399,1590565110,V
75,2298208,-4.2305,-9.3966,0.0167,-18.6200,0.7000,-7.3500,1000.3693,-2.4010,-9.5079,0.0747,1590565110,V
76,2291371,-3.2566,-9.1884,-0.4164,-29.3300,9.2400,-1.4700,1000.3737,-1.5746,-9.6735,-0.3390,1590565110,V
76,2284965,-3.4265,-8.6501,-0.7035,-1.3300,3.9900,-5.9500,1000.3777,-0.8610,-9.7583,-0.4526,1590565110,V
76,2281034,-3.7161,-9.0018,-1.0887,-36.4000,1.7500,7.0700,1000.3818,0.5354,-9.7596,-0.7965,1590565110,V
76,2278795,-3.2351,-8.9180,-1.7109,-12.8100,14.8400,3.2200,1000.3862,-6.1046,-7.6205,-0.9119,1590565110,V
77,2280447,-3.4289,-9.0592,-2.3210,-43.1900,20.4400,0.2100,1000.3900,-5.2368,-8.1365,-1.5949,1590565110,V
76,2286168,-3.9840,-9.6455,-3.5964,-39.9000,34.3000,-18.3400,1000.3938,-4.7387,-8.3039,-2.1816,1590565110,V
77,2299310,-4.0774,-8.8630,-3.6012,-26.1100,58.7300,-38.5000,1000.3971,-3.9957,-8.5350,-2.7126,1590565110,V
77,2312384,-4.0534,3.3858,0.7442,-69.6500,61.3900,-20.4400,1000.4003,-4.8448,-7.7283,-3.6017,1590565110,V
77,2319889,-1.8185,-8.3821,-4.8694,-18.4800,14.7700,27.1600,1000.4033,-4.3322,-7.7812,-4.1054,1590565111,V
77,2324779,-2.6991,-9.9876,-6.0132,30.5900,9.0300,48.7200,1000.4058,-4.3150,-7.7806,-4.1247,1590565111,V
77,2323435,-0.8303,-8.6070,-4.2664,-11.8300,7.0700,30.3800,1000.4084,-3.7816,-7.8656,-4.4724,1590565111,V
77,2321932,-3.9099,-8.2241,-5.7667,-7.4200,4.5500,31.5000,1000.4109,-3.9423,-7.6044,-4.7750,1590565111,V
77,2324615,-4.0343,-7.2455,-5.2786,9.0300,-6.0200,23.8000,1000.4129,-4.1249,-7.4638,-4.8422,1590565111,V
77,2327800,-3.6491,-7.9729,-4.7402,6.5100,-13.5100,16.1000,1000.4152,-4.1677,-7.5023,-4.7451,1590565111,V
77,2328535,-4.8550,-7.3029,-4.7880,10.9900,-27.5100,11.7600,1000.4177,-4.4571,-7.4435,-4.5716,1590565111,V
77,2325968,-4.9651,-7.7360,-4.2377,5.0400,-24.8500,20.0900,1000.4202,-4.7525,-7.3805,-4.3718,1590565111,V
77,2320345,-5.0608,-7.6211,-3.2877,14.0700,-20.9300,12.6000,1000.4226,-4.9712,-7.4486,-3.9970,1590565111,V
77,2315672,-5.9964,-7.5350,-3.2399,7.1400,-26.8100,12.9500,1000.4258,-5.3162,-7.3723,-3.6821,1590565111,V
77,2312831,-5.7691,-7.3125,-2.5603,6.5800,-20.7200,14.1400,1000.4276,-5.5956,-7.3245,-3.3484,1590565112,V
77,2310735,-6.0945,-7.7312,-2.2158,8.1900,-19.7400,3.5000,1000.4288,-5.7571,-7.3598,-2.9766,1590565112,V
77,2310605,-6.6233,-7.0493,-1.2873,12.1100,-18.4800,1.0500,1000.4297,-5.9852,-7.3576,-2.4928,1590565112,V
77,2311723,-6.3338,-7.5063,-1.4357,13.0900,-19.0400,0.9800,1000.4315,-6.0914,-7.3868,-2.1214,1590565112,V
77,2312623,-6.4463,-7.2239,-0.8806,19.0400,-4.4100,9.3100,1000.4327,-6.1371,-7.4459,-1.7508,1590565112,V
77,2310255,-6.0084,-7.5852,-1.3113,23.4500,5.6700,2.1000,1000.4329,-5.9033,-7.6763,-1.5480,1590565112,V
77,2307590,-6.9655,-6.6568,-0.6652,17.8500,1.9600,-3.5000,1000.4327,-5.8661,-7.7540,-1.2785,1590565112,V
77,2307241,-6.5611,-6.9320,-1.2897,11.7600,-1.0500,-5.6000,1000.4324,-5.8671,-7.7638,-1.2130,1590565112,V
77,2307066,-6.3793,-7.8006,-0.4690,7.5600,7.2100,-8.7500,1000.4327,-5.6628,-7.9393,-1.0344,1590565112,V
77,2307510,-6.0012,-7.6499,-0.2560,16.1700,-1.5400,-10.7100,1000.4322,-5.3204,-8.2030,-0.7580,1590565112,V
77,2309253,-5.7787,-7.5709,-0.7466,18.1300,-1.0500,-16.1700,1000.4319,-4.9480,-8.4440,-0.6222,1590565113,V
77,2309878,-5.9174,-7.4919,-0.0885,13.0900,0.3500,-11.2700,1000.4317,-4.5562,-8.6741,-0.4140,1590565113,V
77,2310959,-5.6136,-7.8628,0.3015,12.0400,-0.9100,-8.6800,1000.4302,-3.8168,-9.0320,-0.1600,1590565113,V
77,2308439,-5.6973,-7.6977,0.2512,10.5000,-3.5000,-5.2500,1000.4288,-2.8837,-9.3730,0.0284,1590565113,V
77,2304270,-5.4317,-8.0279,0.2728,8.5400,-3.5000,-4.1300,1000.4274,-1.6978,-9.6573,0.1592,1590565113,V
77,2303418,-5.4150,-7.8269,0.5982,3.7100,2.7300,-3.2900,1000.4263,-0.8174,-9.7693,0.2493,1590565113,V
77,2303618,-5.4054,-8.2289,0.5121,5.8800,1.1900,-6.7200,1000.4244,-7.4514,-6.3713,0.2299,1590565113,V
77,2304220,-5.4867,-7.9992,1.0289,5.9500,0.3500,-3.9900,1000.4222,-6.7040,-7.1434,0.4446,1590565113,V
77,2305411,-5.1446,-8.2313,0.6700,8.6800,-1.4000,-7.4900,1000.4211,-6.3784,-7.4283,0.5544,1590565113,V
78,2305758,-5.1063,-8.1380,0.9595,9.3800,-0.7700,-10.5700,1000.4202,-6.0821,-7.6606,0.7026,1590565113,V
77,2306383,-4.8909,-8.0949,1.1055,7.9100,-1.3300,-6.9300,1000.4191,-5.8230,-7.8450,0.8481,1590565114,V
77,2302917,-4.9436,-8.2528,1.0911,6.7900,0.7700,-5.1800,1000.4182,-5.6790,-7.9394,0.9412,1590565114,V
77,2299140,-4.6110,-8.2505,1.5362,9.6600,1.3300,-4.7600,1000.4172,-5.4993,-8.0409,1.1280,1590565114,V
78,2297842,-4.6756,-8.3773,1.6941,7.2100,0.7000,-1.8900,1000.4164,-5.3521,-8.1154,1.2905,1590565114,V
77,2296777,-4.8335,-8.3797,1.6415,7.7000,0.7000,-1.8200,1000.4146,-5.2877,-8.1381,1.4082,1590565114,V
77,2297046,-4.8646,-8.3749,1.6726,3.7800,0.0700,-2.9400,1000.4134,-5.1958,-8.1835,1.4845,1590565114,V
77,2296782,-4.6732,-8.5184,1.9071,9.5900,-0.4900,-3.4300,1000.4114,-5.1108,-8.2094,1.6296,1590565114,V
78,2296855,-4.5440,-8.1978,1.9621,5.1100,-1.4000,-3.9900,1000.4093,-5.0020,-8.2532,1.7422,1590565114,V
77,2296825,-4.6612,-8.3653,1.9310,2.6600,-0.2800,-2.0300,1000.4073,-4.9314,-8.2834,1.7992,1590565114,V
77,2293492,-4.5105,-8.3533,2.0698,2.2400,0.1400,-1.6100,1000.4059,-4.8504,-8.3152,1.8713,1590565114,V
77,2289125,-4.4841,-8.5759,2.1488,0.5600,-0.3500,-3.4300,1000.4046,-4.7347,-8.3694,1.9252,1590565115,V
77,2286396,-4.3932,-8.5184,2.2971,5.1100,-1.6100,-4.4100,1000.4033,-4.6459,-8.3935,2.0333,1590565115,V
77,2285539,-4.2616,-8.5041,2.2397,3.4300,-1.8900,-4.9700,1000.4020,-4.5402,-8.4346,2.1010,1590565115,V
77,2284814,-4.2497,-8.5017,2.4981,6.5800,-3.0800,-7.5600,1000.4005,-4.4408,-8.4557,2.2250,1590565115,V
77,2284347,-4.0128,-8.2792,2.3976,3.7100,-2.1000,-5.1100,1000.3990,-4.3474,-8.4840,2.3004,1590565115,V
77,2283840,-4.0845,-8.4467,2.5412,1.8200,-0.6300,-3.4300,1000.3981,-4.2790,-8.5017,2.3626,1590565115,V
77,2283586,-3.9529,-8.6668,2.6201,2.4500,-0.6300,-5.7400,1000.3968,-4.1691,-8.5397,2.4214,1590565115,V
77,2280115,-3.9147,-8.4419,2.6943,3.1500,0.8400,-4.4800,1000.3956,-4.1096,-8.5473,2.4949,1590565115,V
77,2276102,-3.9051,-8.8056,2.5029,2.9400,-1.1200,-4.4100,1000.3944,-4.0314,-8.5810,2.5071,1590565115,V
77,2273457,-3.7041,-8.5041,2.7805,3.5000,-1.1200,-5.6700,1000.3934,-3.9402,-8.5996,2.5868,1590565115,V
77,2271688,-3.5342,-8.5783,2.8307,1.8200,-0.9800,-4.0600,1000.3923,-3.8356,-8.6276,2.6502,1590565116,V
77,2269663,-3.5605,-8.7266,2.9001,4.6900,-0.4200,-3.5000,1000.3915,-3.7655,-8.6349,2.7256,1590565116,V
77,2267880,-3.5318,-8.7099,2.7781,2.5200,-0.6300,-4.5500,1000.3913,-3.6903,-8.6605,2.7475,1590565116,V
77,2266573,-3.3547,-8.6381,3.1609,3.8500,-0.9800,-5.1100,1000.3911,-3.5941,-8.6679,2.8496,1590565116,V
77,2265166,-3.3787,-8.6907,3.0796,4.1300,-2.1000,-3.3600,1000.3907,-3.5309,-8.6695,2.9228,1590565116,V
77,2260191,-3.2112,-8.6094,3.1561,2.8000,-1.3300,-4.0600,1000.3902,-3.4451,-8.6814,2.9890,1590565116,V
77,2254675,-3.0724,-8.6931,3.1920,3.0100,0.7000,-4.2000,1000.3892,-3.3512,-8.6997,3.0422,1590565116,V
