0,2497812,2.3330,5.8792,7.4871,0.3500,3.1500,-1.1900,1000.3856,2.3235,5.6470,7.6735,1590567135,N
0,2504989,2.3593,5.7643,7.5374,-4.9700,0.4900,-0.8400,1000.3755,2.3228,5.6411,7.6781,1590567136,N
0,2505444,2.2684,5.7141,7.5948,1.6800,1.3300,0.7700,1000.3662,2.3097,5.6604,7.6678,1590567136,N
0,2505204,2.4191,5.6662,7.6355,4.1300,-0.4900,2.9400,1000.3579,2.3485,5.6770,7.6437,1590567136,N
0,2147483647,2.4885,5.7332,7.4728,-0.1400,-0.4900,0.2100,1000.3517,2.3837,5.6971,7.6179,1590567136,N
0,2147483647,2.3569,5.7452,7.4297,-2.9400,0.3500,-1.8900,1000.3467,2.3730,5.7092,7.6121,1590567136,N
0,1058080,2.3617,5.7571,7.6594,0.4900,0.0700,0.2100,1000.3420,2.3685,5.7135,7.6103,1590567136,N
0,1248497,2.3976,5.8026,7.5494,6.5800,-0.1400,1.0500,1000.3365,2.3828,5.7709,7.5624,1590567136,N
0,1251902,2.3952,5.8505,7.4680,-0.5600,0.6300,0.7000,1000.3319,2.3852,5.7787,7.5557,1590567136,N
0,1952442,2.4646,5.6638,7.5374,0.3500,0.4200,0.7700,1000.3278,2.4051,5.7592,7.5643,1590567136,N
0,1965935,2.3115,5.8911,7.5398,-0.6300,-1.0500,-0.6300,1000.3242,2.3880,5.7852,7.5498,1590567136,N
0,1964930,2.4048,6.0084,7.6403,1.1200,-3.4300,1.2600,1000.3208,2.4076,5.8229,7.5145,1590567137,N
0,1963452,2.3928,5.6566,7.4010,4.9700,-7.7700,1.4700,1000.3179,2.4683,5.8755,7.4536,1590567137,N
0,1961629,2.5603,5.9079,7.4847,0.4200,2.0300,-2.1700,1000.3150,2.4626,5.8791,7.4526,1590567137,N
0,2138047,2.4191,5.8600,7.4871,-4.4800,5.7400,-0.5600,1000.3122,2.4154,5.8194,7.5148,1590567137,N
0,2141486,2.3139,5.7165,7.4800,1.2600,1.1900,0.8400,1000.3099,2.3975,5.8104,7.5274,1590567137,N
0,2185484,2.4957,5.8720,7.4034,7.2100,-3.9900,1.4000,1000.3080,2.4520,5.8884,7.4488,1590567137,N
0,2185927,2.5005,5.2762,7.3101,-8.8200,7.1400,-1.6100,1000.3060,2.4327,5.7295,7.5779,1590567137,N
0,2185911,2.4885,5.8050,7.3890,-7.1400,-4.1300,-0.2800,1000.3035,2.4677,5.7271,7.5684,1590567137,N
0,2187088,2.3761,5.8959,7.4082,4.0600,-0.1400,1.7500,1000.3017,2.4621,5.7857,7.5255,1590567137,N
0,2185993,2.4407,6.0993,7.4752,-1.1900,-2.1700,0.7000,1000.3004,2.4661,5.8290,7.4907,1590567137,N
0,2180665,2.5555,5.7571,7.3986,-3.1500,0.8400,-0.0700,1000.2999,2.4818,5.8000,7.5080,1590567138,N
0,2179431,2.5268,5.9198,7.5446,-4.0600,5.1800,-2.1000,1000.3000,2.4437,5.7693,7.5441,1590567138,N
0,2180776,2.4120,5.6806,7.5565,0.5600,-1.8900,0.7700,1000.2999,2.4545,5.7663,7.5429,1590567138,N
0,2180595,2.6010,5.5513,7.6020,0.9100,7.5600,-2.3100,1000.2993,2.4323,5.7095,7.5932,1590567138,N
0,2181155,2.5603,5.7165,7.5278,-2.8700,-2.9400,-2.0300,1000.2994,2.4663,5.7178,7.5759,1590567138,N
0,2182495,2.4550,5.8720,7.4967,1.1900,-2.9400,-0.9800,1000.2991,2.4769,5.7730,7.5304,1590567138,N
0,2185115,2.5005,5.9270,7.5230,3.9900,1.6800,1.9600,1000.2983,2.4775,5.8020,7.5080,1590567138,N
0,2187537,2.4622,5.8026,7.4704,-3.1500,3.0100,1.6800,1000.2976,2.4632,5.7608,7.5442,1590567138,N
0,2184448,2.5149,5.6949,7.5111,1.0500,-0.9100,-1.0500,1000.2965,2.4780,5.7708,7.5318,1590567138,N
0,2180888,2.6632,5.8696,7.5470,1.4700,-5.3900,-1.3300,1000.2961,2.5358,5.8191,7.4751,1590567138,N
0,2182184,2.7374,5.9318,7.4465,2.0300,-0.4200,-0.7700,1000.2963,2.5709,5.8501,7.4389,1590567139,N
0,2185917,2.7278,5.7978,7.3603,-3.0800,2.2400,1.8900,1000.2965,2.5980,5.8046,7.4651,1590567139,N
0,2187885,2.6465,5.7547,7.3508,0.4900,1.1900,0.8400,1000.2960,2.6101,5.8007,7.4639,1590567139,N
0,2188885,2.3809,5.7428,7.5972,-3.2900,3.1500,-1.9600,1000.2955,2.5350,5.7620,7.5195,1590567139,N
0,2189102,2.5651,5.6877,7.5876,1.4000,-0.9800,0.4200,1000.2952,2.5486,5.7572,7.5186,1590567139,N
0,2190302,2.7446,5.8409,7.4441,-0.5600,1.4700,-0.8400,1000.2951,2.5728,5.7631,7.5059,1590567139,N
0,2188391,2.6177,5.7117,7.5517,2.5900,-2.8000,0.8400,1000.2953,2.6025,5.7768,7.4850,1590567139,N
0,2185126,2.6058,5.8241,7.4632,-1.1900,1.1900,-1.9600,1000.2955,2.5867,5.7816,7.4868,1590567139,N
0,2183524,2.5842,5.8193,7.3986,-2.8700,1.1200,-1.1200,1000.2960,2.5758,5.7757,7.4952,1590567139,N
0,2184339,2.6967,5.7882,7.5517,-1.4700,0.9800,0.9100,1000.2965,2.5925,5.7492,7.5097,1590567139,N
0,2186097,2.6776,5.6016,7.5398,-7.8400,6.2300,-1.4700,1000.2975,2.5635,5.6491,7.5952,1590567140,N
0,2187531,2.3880,5.4939,7.5972,-0.9800,-1.3300,1.6800,1000.2981,2.5490,5.6242,7.6185,1590567140,N
0,2188269,2.5986,5.7739,7.6666,6.5800,-5.2500,-0.2100,1000.2990,2.5868,5.7092,7.5421,1590567140,N
0,2189642,2.5077,5.6495,7.5733,-2.6600,2.4500,-0.1400,1000.2998,2.5556,5.6720,7.5807,1590567140,N
0,2192438,2.5962,5.7284,7.5135,-0.5600,0.9800,0.8400,1000.3010,2.5613,5.6716,7.5791,1590567140,N
0,2189149,2.4837,5.7284,7.5852,0.9100,2.4500,0.7700,1000.3020,2.5339,5.6718,7.5882,1590567140,N
0,2184303,2.6106,5.5083,7.6164,2.7300,-2.8000,1.1200,1000.3021,2.5753,5.6711,7.5748,1590567140,N
0,2182345,2.6465,5.7595,7.6379,-1.8900,0.0700,-0.6300,1000.3024,2.5790,5.6648,7.5782,1590567140,N
0,2183448,2.7111,5.6734,7.4154,1.7500,-0.3500,0.7000,1000.3019,2.6162,5.6870,7.5488,1590567140,N
0,2183693,2.6656,5.6806,7.3962,1.4000,-3.0100,0.9100,1000.3019,2.6546,5.7167,7.5129,1590567141,N
0,2185106,2.7589,5.8337,7.4082,-0.3500,-1.6800,-0.0700,1000.3017,2.6841,5.7435,7.4819,1590567141,N
0,2188239,2.5340,5.7571,7.5517,1.0500,0.0700,-1.1900,1000.3016,2.6482,5.7570,7.4843,1590567141,N
0,2192923,2.6417,5.5729,7.5446,-3.2900,3.7100,0.4900,1000.3016,2.6282,5.6858,7.5455,1590567141,N
0,2194492,2.5747,5.6925,7.5565,0.9800,4.7600,0.8400,1000.3019,2.5931,5.6684,7.5707,1590567141,N
0,2189803,2.6034,5.6806,7.4752,-1.1200,2.4500,-0.7000,1000.3023,2.5803,5.6630,7.5791,1590567141,N
0,2184592,2.6369,5.6207,7.6068,1.7500,1.2600,0.3500,1000.3028,2.5859,5.6578,7.5810,1590567141,N
0,2183441,2.5747,5.7069,7.5900,0.6300,-0.5600,-0.1400,1000.3034,2.5852,5.6715,7.5711,1590567141,N
0,2183663,2.5747,5.6614,7.4871,-0.1400,0.2800,-0.4200,1000.3031,2.5836,5.6779,7.5668,1590567141,N
0,2184995,2.5627,5.7260,7.5948,0.9800,1.9600,0.1400,1000.3029,2.5665,5.6795,7.5715,1590567141,N
0,2186711,2.6273,5.7619,7.5494,2.1000,0.3500,0.8400,1000.3029,2.5789,5.6992,7.5524,1590567141,N
0,2189197,2.6154,5.9151,7.5781,-3.0800,-3.4300,1.1200,1000.3029,2.6013,5.7123,7.5348,1590567142,N
0,2191280,2.6871,5.6925,7.4441,0.2800,-0.2100,0.8400,1000.3026,2.6265,5.7138,7.5249,1590567142,N
0,2188461,2.7661,5.8241,7.4871,1.0500,0.2800,-0.0700,1000.3026,2.6491,5.7339,7.5017,1590567142,N
0,2185668,2.6393,5.7835,7.4800,1.6800,0.4900,0.3500,1000.3028,2.6462,5.7502,7.4902,1590567142,N
0,2185764,2.6106,5.6758,7.5302,-0.7000,0.1400,-0.2100,1000.3032,2.6381,5.7336,7.5057,1590567142,N
0,2186749,2.6489,5.8098,7.5135,0.2800,-0.2800,1.0500,1000.3027,2.6436,5.7403,7.4987,1590567142,N
0,2188339,2.6871,5.6806,7.3986,-1.0500,0.0700,0.7000,1000.3021,2.6596,5.7290,7.5017,1590567142,N
0,2190488,2.5914,5.6925,7.6020,-0.2100,0.4200,0.7700,1000.3007,2.6445,5.7103,7.5213,1590567142,N
0,2193149,2.7302,5.6471,7.7145,-3.0100,-1.5400,2.1700,1000.2995,2.6704,5.6571,7.5523,1590567142,N
0,2195908,2.8451,5.7069,7.4441,-2.8000,-1.7500,0.4900,1000.2988,2.7162,5.6538,7.5383,1590567142,N
0,2196579,2.7948,5.5777,7.4752,-0.1400,-0.7700,0.3500,1000.2979,2.7419,5.6471,7.5341,1590567143,N
0,2192947,2.6249,5.3025,7.9657,-0.0700,-4.8300,-3.5700,1000.2971,2.7289,5.6055,7.5698,1590567143,N
0,2190175,2.6297,5.1805,8.4467,9.1000,-19.6700,-15.3300,1000.2964,2.7535,5.7041,7.4868,1590567143,N
0,2190460,2.4742,5.4963,8.4706,-5.3900,-42.8400,-33.2500,1000.2958,2.7782,5.9241,7.3046,1590567143,N
0,2193185,2.7972,5.0465,7.5517,-12.8800,-60.6200,-36.1200,1000.2964,2.9764,6.0911,7.0859,1590567143,N
0,2197465,2.9360,5.7212,6.5994,1.1900,-53.2000,-42.5600,1000.2972,3.0658,6.4677,6.7037,1590567143,N
0,2202797,3.1298,6.5228,5.8744,33.1100,-52.6400,-48.2300,1000.2976,3.0577,7.0994,6.0348,1590567143,N
0,2207690,2.5723,8.3294,4.7689,23.6600,-43.7500,-41.7900,1000.2986,2.8332,7.7285,5.3304,1590567143,N
0,2211297,2.3569,8.0495,3.7902,2.1700,-28.9100,-22.2600,1000.2988,2.7194,8.0472,4.9009,1590567143,N
0,2210516,2.1918,7.9131,3.8501,16.3800,-15.0500,-7.2800,1000.2991,2.6074,8.2819,4.5587,1590567143,N
0,2206944,2.4120,8.0925,4.2162,25.9700,-10.9900,15.9600,1000.2996,2.6828,8.3688,4.3516,1590567144,N
0,2205413,2.7254,6.8028,4.7641,49.9100,-23.8700,39.4100,1000.2999,3.0322,8.3593,4.1350,1590567144,N
0,2206288,3.8907,8.0040,3.9410,18.3400,-25.3400,89.8800,1000.3009,3.8934,7.9863,4.1510,1590567144,N
0,2207786,8.3414,4.1755,2.9049,65.3100,-24.1500,115.8500,1000.3019,5.5155,7.1532,3.8186,1590567144,N
0,2206641,9.2818,4.2568,1.4237,54.7400,-5.2500,99.2600,1000.3031,6.6134,6.5043,3.1824,1590567144,N
0,2206988,10.6098,3.4768,1.1797,17.5700,-3.1500,67.9000,1000.3047,7.2873,5.8758,2.9226,1590567144,N
0,2208557,9.5880,2.7589,0.5432,15.6800,-27.1600,42.9800,1000.3066,7.9308,5.2905,2.2987,1590567144,N
0,2209064,10.3920,2.7517,-0.2704,-4.2700,-22.6100,33.5300,1000.3077,8.3334,4.8979,1.6536,1590567144,N
0,2202961,9.4851,2.6297,-0.5767,-13.7900,6.6500,2.3800,1000.3093,8.3077,5.0571,1.2559,1590567144,N
0,2200586,10.1408,2.3689,0.5886,-35.9800,-6.6500,3.8500,1000.3112,8.8501,4.0449,1.2184,1590567145,N
0,2198456,9.4445,2.4335,0.3470,-39.6900,7.9800,-6.5800,1000.3140,9.0320,3.6280,1.1959,1590567145,N
0,2198530,9.4780,2.3880,0.8495,-23.5900,-1.3300,-6.0900,1000.3170,9.1853,3.2288,1.1730,1590567145,N
0,2199090,9.5498,2.7494,0.7178,-14.7700,2.0300,-3.4300,1000.3195,9.2315,3.1116,1.1256,1590567145,N
0,2200552,9.4684,2.7182,0.9715,-0.9800,2.5900,-1.6800,1000.3217,9.2488,3.0625,1.1187,1590567145,N
0,2202057,9.6359,2.6704,1.1797,1.5400,3.3600,1.2600,1000.3241,9.2692,2.9885,1.1494,1590567145,N
0,2203910,9.7292,2.5842,1.1031,9.2400,8.1200,-8.7500,1000.3259,9.2312,3.0858,1.1975,1590567145,N
0,2201274,9.2985,2.5771,1.1462,2.8700,13.0900,-19.2500,1000.3274,9.1454,3.2859,1.3168,1590567145,N
0,2196917,9.0281,3.2830,1.4955,3.2900,14.9100,-23.9400,1000.3289,8.9831,3.6387,1.4945,1590567145,N
0,2195354,8.9755,3.8285,1.6032,-1.8200,15.1900,-17.3600,1000.3304,8.8311,3.9305,1.6532,1590567145,N
0,2195080,8.5280,3.6754,2.0841,11.6200,13.8600,-14.7000,1000.3313,8.6806,4.1748,1.8408,1590567145,N
0,2195323,8.5783,4.3382,1.8688,7.7000,2.5900,-0.2100,1000.3319,8.6337,4.2691,1.8450,1590567146,N
0,2195444,8.5783,3.9529,1.4955,-3.2900,-6.1600,5.2500,1000.3329,8.7253,4.1241,1.7411,1590567146,N
0,2195788,9.4062,4.2233,1.5266,-2.8700,-15.1900,-1.1200,1000.3343,8.8283,3.9685,1.5755,1590567146,N
0,2197546,8.9420,3.7878,1.4261,-30.3800,-10.9200,-1.9600,1000.3353,8.9388,3.7295,1.5360,1590567146,N
0,2195350,8.9659,4.0008,1.6534,-30.5900,-8.8900,-3.2200,1000.3365,8.9793,3.6194,1.5629,1590567146,N
0,2190553,8.9611,3.2590,1.3328,3.9900,-4.9700,-10.7100,1000.3375,8.9917,3.6202,1.4880,1590567146,N
0,2187610,8.9204,4.5942,1.2873,6.1600,5.6700,-11.3400,1000.3384,8.8620,3.9261,1.4903,1590567146,N
0,2187737,8.7817,4.7833,1.3567,12.9500,5.1800,-3.5000,1000.3393,8.7444,4.1886,1.4701,1590567146,N
0,2189424,8.7506,4.5057,1.5864,-10.2900,8.6800,0.4900,1000.3403,8.6911,4.2591,1.5796,1590567146,N
0,2192410,8.7147,4.2544,2.0124,-6.3000,4.1300,-1.2600,1000.3406,8.6626,4.2665,1.7110,1590567146,N
0,2196028,8.7003,4.3813,2.0411,-4.9700,3.2200,0.4200,1000.3412,8.6379,4.2766,1.8076,1590567147,N
0,2199156,8.6836,4.2664,1.8903,-1.2600,1.1900,0.2100,1000.3413,8.6349,4.2715,1.8341,1590567147,N
0,2199861,8.6979,4.3860,1.8305,-0.4900,1.4700,3.9900,1000.3427,8.6392,4.2617,1.8366,1590567147,N
0,2196188,8.7386,4.0415,1.9789,1.4700,0.4200,2.8000,1000.3432,8.6632,4.2024,1.8601,1590567147,N
0,2193093,8.7817,4.2592,1.8999,5.8100,0.4200,2.5200,1000.3436,8.6614,4.2117,1.8471,1590567147,N
0,2192575,8.7912,4.2162,1.8233,4.5500,-0.2100,2.0300,1000.3442,8.6691,4.2068,1.8220,1590567147,N
0,2192160,8.7625,4.1850,1.8473,12.1800,1.8200,1.8900,1000.3445,8.6507,4.2528,1.8028,1590567147,N
0,2191571,8.7745,4.3430,1.7228,11.2000,3.5700,1.0500,1000.3454,8.6147,4.3358,1.7768,1590567147,N
0,2193097,8.7027,3.7041,1.5984,14.1400,1.4700,-5.4600,1000.3459,8.6149,4.3546,1.7299,1590567147,N
0,2195639,8.7410,4.8909,1.5936,12.4600,5.8800,-0.5600,1000.3458,8.5167,4.5547,1.7004,1590567147,N
0,2197674,8.7553,4.1204,1.6391,-2.5200,3.5700,1.4000,1000.3456,8.5589,4.4672,1.7206,1590567148,N
0,2196327,8.6596,4.6684,1.7611,-1.0500,7.5600,4.6200,1000.3459,8.5275,4.5063,1.7735,1590567148,N
0,2195417,8.7482,3.4385,1.5410,17.9200,5.4600,-0.8400,1000.3457,8.5601,4.4592,1.7348,1590567148,N
0,2197212,8.6046,5.2666,1.5649,40.5300,13.1600,-0.1400,1000.3456,8.2925,4.9655,1.6578,1590567148,N
0,2197918,8.5998,3.3045,1.6798,33.4600,6.3000,-4.2700,1000.3464,8.3086,4.9433,1.6434,1590567148,N
0,2198363,8.4443,5.0632,1.6558,7.7000,11.0600,0.6300,1000.3472,8.2131,5.0869,1.6851,1590567148,N
0,2199149,8.5974,4.3047,1.5793,25.6200,-9.5200,-6.3000,1000.3479,8.2375,5.0955,1.5330,1590567148,N
0,2199529,8.3414,5.4293,1.6798,-14.8400,6.7200,-10.7800,1000.3479,8.1799,5.1517,1.6488,1590567148,N
0,2200196,8.4969,5.3097,1.3783,-11.4100,-9.3100,-3.6400,1000.3474,8.2744,5.0255,1.5651,1590567148,N
0,2199427,8.4993,4.7282,1.1366,-12.6000,-6.0200,0.2800,1000.3462,8.4028,4.8354,1.4773,1590567148,N
0,2198221,8.4562,4.9436,1.1868,1.1200,2.4500,-4.8300,1000.3452,8.3609,4.9201,1.4347,1590567149,N
0,2198449,8.3749,5.4078,1.5721,-13.0900,10.1500,0.6300,1000.3445,8.2954,4.9914,1.5628,1590567149,N
0,2200953,8.3653,4.6947,1.9358,-12.3900,3.3600,6.3700,1000.3439,8.3605,4.8374,1.6947,1590567149,N
0,2203757,8.4108,4.7402,1.8855,-6.9300,1.8200,5.3200,1000.3439,8.3972,4.7496,1.7605,1590567149,N
0,2206665,8.5113,4.7593,2.0124,-10.5700,2.1000,7.2800,1000.3445,8.4397,4.6413,1.8437,1590567149,N
73,2209595,8.5519,4.2209,2.1775,-9.3100,2.3100,8.3300,1000.3455,8.5124,4.4631,1.9468,1590567149,N
73,2212477,8.5950,4.1468,2.2828,-3.7800,1.8900,2.9400,1000.3463,8.5400,4.3701,2.0351,1590567149,N
73,2212131,8.6118,4.3478,2.2158,0.0700,0.4200,1.8200,1000.3464,8.5443,4.3463,2.0675,1590567149,N
73,2209538,8.6740,4.2688,2.1727,1.6800,-0.0700,1.6100,1000.3462,8.5574,4.3161,2.0767,1590567149,N
73,2208371,8.6046,4.3884,2.2038,0.2800,-0.6300,0.4900,1000.3463,8.5542,4.3152,2.0916,1590567149,N
73,2209079,8.5878,4.3190,2.1631,0.4900,-2.6600,0.7700,1000.3457,8.5685,4.2914,2.0821,1590567150,N
73,2209498,8.6931,4.1539,2.1966,-0.1400,-3.9200,-0.2100,1000.3445,8.5990,4.2339,2.0740,1590567150,N
73,2210520,8.6572,4.4028,2.0746,-7.9800,-7.1400,-0.6300,1000.3433,8.6319,4.1833,2.0398,1590567150,N
73,2213387,8.7218,3.9984,1.7635,-3.3600,-7.0700,-4.1300,1000.3430,8.6812,4.1246,1.9483,1590567150,N
73,2216172,8.6907,4.6158,1.7085,-1.3300,1.8200,0.9100,1000.3428,8.6535,4.1995,1.9110,1590567150,N
73,2216730,8.6716,4.1013,2.0435,-3.2900,1.3300,2.4500,1000.3430,8.6650,4.1562,1.9529,1590567150,N
73,2214234,8.6788,4.1874,2.0363,1.3300,0.9800,2.4500,1000.3428,8.6638,4.1516,1.9680,1590567150,N
72,2212688,8.7338,4.3334,1.9190,1.7500,0.8400,0.4900,1000.3431,8.6508,4.1852,1.9540,1590567150,N
73,2213329,8.7577,4.2162,2.0267,-0.3500,0.9800,0.6300,1000.3441,8.6490,4.1811,1.9709,1590567150,N
72,2214236,8.7266,4.3334,1.9143,0.5600,0.9100,0.1400,1000.3446,8.6384,4.2081,1.9598,1590567151,N
73,2215672,8.7099,4.2903,1.9956,-0.4200,0.4200,0.5600,1000.3440,8.6351,4.2119,1.9662,1590567151,N
72,2217473,8.6979,4.2305,2.0626,1.0500,-0.1400,0.3500,1000.3429,8.6336,4.2095,1.9776,1590567151,N
73,2219288,8.7266,4.3095,1.9693,3.1500,-0.9100,1.0500,1000.3414,8.6346,4.2183,1.9544,1590567151,N
72,2220035,8.7482,4.1707,1.9143,4.3400,-2.2400,1.3300,1000.3413,8.6545,4.1962,1.9136,1590567151,N
72,2216651,8.7482,4.2473,1.7994,3.2900,-2.4500,-0.8400,1000.3412,8.6620,4.2039,1.8620,1590567151,N
72,2213748,8.8391,4.3023,1.5817,1.4000,-2.1700,-0.2800,1000.3414,8.6788,4.2042,1.7815,1590567151,N
72,2213294,8.7314,4.2832,1.6510,-2.9400,0.2800,-1.4700,1000.3407,8.6768,4.2151,1.7652,1590567151,N
72,2214096,8.8080,4.2951,1.8185,2.8700,1.2600,0.5600,1000.3404,8.6656,4.2358,1.7709,1590567151,N
72,2214036,9.0951,4.2353,1.6774,10.2200,6.3000,5.7400,1000.3396,8.6581,4.2587,1.7524,1590567151,N
72,2211395,8.5639,4.1276,1.6965,-8.9600,11.5500,9.3100,1000.3384,8.6619,4.2125,1.8432,1590567151,N
72,2212814,8.8056,4.1324,2.1224,1.3300,-3.9900,1.9600,1000.3369,8.6924,4.1430,1.8569,1590567152,N
72,2215035,8.7936,4.1180,1.8664,2.5900,-0.2100,-2.8000,1000.3359,8.6837,4.1638,1.8511,1590567152,N
72,2216811,8.7290,4.1037,1.9597,-0.2800,2.4500,-2.1000,1000.3353,8.6667,4.1805,1.8927,1590567152,N
72,2215054,8.8080,4.1946,1.9286,0.7700,-0.5600,-2.6600,1000.3347,8.6612,4.1922,1.8919,1590567152,N
72,2214668,8.8032,4.2209,1.7850,-1.1200,0.5600,-0.7000,1000.3338,8.6647,4.1929,1.8743,1590567152,N
72,2215577,8.7817,4.1468,1.9406,0.4900,-0.4900,0.0700,1000.3334,8.6731,4.1734,1.8788,1590567152,N
72,2216290,8.7266,4.3095,1.9167,-7.9100,-1.7500,1.6100,1000.3338,8.6915,4.1307,1.8880,1590567152,N
72,2217105,8.8511,4.1061,1.7420,4.1300,-6.6500,1.2600,1000.3345,8.7366,4.0778,1.7929,1590567152,N
72,2217588,8.7649,4.1300,1.6893,0.9100,-0.0700,0.4200,1000.3353,8.7380,4.0857,1.7676,1590567152,N
72,2219628,8.8511,4.1252,1.7228,4.7600,2.9400,-1.4000,1000.3348,8.7130,4.1394,1.7662,1590567152,N
72,2221520,8.8056,4.2281,1.9047,-1.1200,2.1700,0.4200,1000.3351,8.6985,4.1524,1.8067,1590567153,N
72,2219121,8.7625,4.1133,1.8185,-0.4900,1.6800,0.3500,1000.3350,8.6976,4.1481,1.8208,1590567153,N
72,2216822,8.8056,4.1731,1.8592,-0.4900,1.4700,0.2100,1000.3354,8.6934,4.1502,1.8361,1590567153,N
71,2216572,8.7362,4.1731,1.9358,-0.5600,1.6100,0.2100,1000.3352,8.6840,4.1563,1.8664,1590567153,N
71,2217319,8.7721,4.1324,1.8520,0.7000,0.4900,-0.2100,1000.3345,8.6856,4.1543,1.8632,1590567153,N
71,2218144,8.7290,4.1515,2.0100,0.3500,-1.5400,0.9800,1000.3340,8.6940,4.1311,1.8761,1590567153,N
71,2218723,8.8080,4.1133,1.7874,1.0500,-1.0500,0.1400,1000.3337,8.7071,4.1175,1.8448,1590567153,N
71,2219826,8.8439,4.1994,1.7707,0.7700,-0.8400,0.2100,1000.3332,8.7130,4.1177,1.8164,1590567153,N
71,2221246,8.8391,4.0367,1.8497,-0.4900,0.9100,0.4900,1000.3333,8.7214,4.0948,1.8274,1590567153,N
71,2221258,8.8534,4.0678,1.7874,-0.5600,0.9800,0.7700,1000.3326,8.7293,4.0798,1.8235,1590567153,N
71,2218311,8.7817,4.1252,1.7922,1.0500,0.4200,0.5600,1000.3320,8.7277,4.0872,1.8147,1590567154,N
71,2216668,8.8032,4.1420,1.8018,-0.9100,0.4200,0.2800,1000.3323,8.7276,4.0876,1.8141,1590567154,N
71,2217130,8.8822,4.0869,1.7803,-0.5600,-0.3500,0.0700,1000.3322,8.7379,4.0711,1.8013,1590567154,N
71,2218189,8.7984,4.0702,1.7683,-0.9100,0.2800,-0.2100,1000.3320,8.7407,4.0668,1.7977,1590567154,N
71,2219753,8.7721,4.1300,1.8042,0.6300,0.4200,-0.2100,1000.3327,8.7332,4.0823,1.7988,1590567154,N
71,2221982,8.8989,4.1348,1.7803,0.2100,1.0500,0.0700,1000.3334,8.7315,4.0872,1.7963,1590567154,N
71,2224436,8.7841,4.0702,1.8975,-0.8400,0.9100,0.8400,1000.3342,8.7318,4.0750,1.8221,1590567154,N
71,2227271,8.8367,4.1324,1.8688,-0.4200,0.7700,-0.0700,1000.3354,8.7270,4.0802,1.8336,1590567154,N
71,2227956,8.8056,4.1635,1.8592,-0.7000,-0.4200,0.0700,1000.3365,8.7267,4.0810,1.8332,1590567154,N
71,2225380,8.8391,4.0989,1.9023,-5.3900,-0.1400,1.8900,1000.3371,8.7439,4.0351,1.8527,1590567154,N
71,2223583,8.8463,4.0510,1.7539,0.9100,0.3500,0.4200,1000.3374,8.7488,4.0350,1.8297,1590567155,N
71,2223805,8.8726,4.1085,1.8377,1.1900,0.7700,0.4200,1000.3375,8.7444,4.0452,1.8282,1590567155,N
71,2224578,8.8367,4.1276,1.8640,4.2000,0.4900,-0.0700,1000.3380,8.7319,4.0741,1.8236,1590567155,N
71,2225414,8.8295,4.1180,1.7994,0.7000,0.6300,0.6300,1000.3378,8.7318,4.0773,1.8172,1590567155,N
71,2226864,8.8247,4.0630,1.7946,0.7000,0.7700,-0.1400,1000.3383,8.7319,4.0783,1.8142,1590567155,N
71,2228587,8.8654,4.0941,1.7898,-0.7000,0.9800,0.3500,1000.3381,8.7347,4.0727,1.8136,1590567155,N
71,2230505,8.7841,4.1515,1.8090,-1.3300,0.9100,0.8400,1000.3380,8.7320,4.0760,1.8190,1590567155,N
71,2229528,8.8558,3.9960,1.8736,-2.4500,0.5600,0.9800,1000.3373,8.7462,4.0379,1.8358,1590567155,N
71,2226727,8.8582,3.9840,1.8281,-0.7700,0.1400,0.7700,1000.3369,8.7584,4.0124,1.8334,1590567155,N
71,2225414,8.8822,3.9649,1.8784,-4.9000,-0.4200,0.2100,1000.3369,8.7751,3.9692,1.8477,1590567156,N
71,2225527,8.8846,4.0463,1.8784,0.2800,0.3500,0.9100,1000.3369,8.7744,3.9700,1.8493,1590567156,N
71,2226042,8.9013,3.8859,1.8784,-0.2100,0.9100,0.2800,1000.3370,8.7816,3.9495,1.8590,1590567156,N
71,2227451,8.8846,3.9888,1.9310,0.4900,0.3500,0.1400,1000.3365,8.7786,3.9509,1.8698,1590567156,N
70,2228989,8.8774,3.9362,1.8520,0.5600,0.3500,0.1400,1000.3354,8.7823,3.9453,1.8643,1590567156,N
71,2230693,8.8319,4.0654,1.9454,0.4200,-0.1400,-0.0700,1000.3340,8.7727,3.9619,1.8742,1590567156,N
70,2232523,8.8630,4.0247,1.8544,-1.8900,-0.0700,0.8400,1000.3329,8.7787,3.9510,1.8695,1590567156,N
71,2231551,8.8463,3.8931,1.9334,-6.0200,-0.0700,2.9400,1000.3325,8.8029,3.8866,1.8905,1590567156,N
70,2229239,8.9276,3.7496,1.8640,-0.6300,0.2100,1.1200,1000.3331,8.8224,3.8449,1.8847,1590567156,N
71,2228328,8.8726,3.8285,1.8903,2.1700,0.4900,-0.8400,1000.3330,8.8171,3.8573,1.8840,1590567156,N
70,2228887,8.9180,3.9960,1.9119,2.1700,0.7000,0.1400,1000.3344,8.8049,3.8854,1.8835,1590567156,N
70,2229609,8.9276,3.8596,1.8951,2.1700,0.9100,0.1400,1000.3353,8.8046,3.8862,1.8832,1590567157,N
70,2231008,8.8534,3.8955,1.9525,0.0700,0.8400,0.1400,1000.3356,8.8001,3.8880,1.9006,1590567157,N
70,2232542,8.8917,3.8381,1.9143,0.0700,0.4900,0.2100,1000.3354,8.8052,3.8747,1.9041,1590567157,N
70,2234400,8.8750,3.8788,1.8808,1.0500,0.7700,-0.2800,1000.3344,8.8024,3.8826,1.9008,1590567157,N
70,2235973,8.9587,3.9888,1.9358,1.6800,0.3500,0.2800,1000.3334,8.7971,3.8958,1.8985,1590567157,N
70,2234293,8.9133,3.9338,1.9478,0.0700,0.4900,-0.0700,1000.3322,8.7946,3.8973,1.9069,1590567157,N
70,2231865,8.8534,3.9338,1.8760,-0.4200,0.9100,0.2800,1000.3304,8.7928,3.9019,1.9059,1590567157,N
70,2230979,8.8487,3.9410,1.9717,0.2800,0.6300,0.1400,1000.3293,8.7872,3.9077,1.9197,1590567157,N
70,2231239,8.8487,3.9147,1.9884,0.4900,0.4200,-0.1400,1000.3286,8.7837,3.9092,1.9327,1590567157,N
70,2231621,8.9515,3.9051,1.9023,0.4200,0.7700,0.2100,1000.3289,8.7883,3.9024,1.9256,1590567157,N
70,2232597,8.8846,3.9147,1.9645,-0.5600,0.7000,0.4200,1000.3282,8.7890,3.8960,1.9355,1590567158,N
70,2233903,8.9180,3.9242,1.9406,0.3500,0.7700,0.4200,1000.3279,8.7895,3.8946,1.9358,1590567158,N
70,2235320,8.8846,3.9051,1.9071,1.3300,1.0500,0.1400,1000.3276,8.7874,3.9015,1.9312,1590567158,N
70,2235848,8.8726,3.9027,1.9645,-0.7700,0.9800,0.4900,1000.3276,8.7879,3.8944,1.9431,1590567158,N
70,2232822,8.8941,3.9601,1.9023,-0.0700,0.7700,0.4900,1000.3276,8.7873,3.8995,1.9359,1590567158,N
69,2230067,8.8678,3.8620,1.9310,-0.2800,0.4200,0.1400,1000.3279,8.7923,3.8880,1.9364,1590567158,N
70,2229291,8.8846,3.8764,1.9502,0.2800,0.7700,0.2100,1000.3281,8.7932,3.8838,1.9408,1590567158,N
69,2229484,8.8511,3.9314,1.9286,0.4900,0.7700,0.1400,1000.3286,8.7889,3.8939,1.9400,1590567158,N
69,2229921,8.9204,3.9386,1.9214,0.8400,0.0700,-0.0700,1000.3289,8.7898,3.8969,1.9297,1590567158,N
69,2231163,8.9061,3.9601,1.9190,0.3500,0.4200,-0.0700,1000.3292,8.7876,3.9042,1.9251,1590567158,N
69,2232506,8.8582,3.8740,1.9573,0.3500,0.4200,0.2800,1000.3293,8.7901,3.8955,1.9311,1590567159,N
69,2233486,8.9659,3.9338,1.9478,0.2800,0.4200,0.2800,1000.3293,8.7925,3.8909,1.9296,1590567159,N
69,2233319,8.9515,3.8453,1.8927,-0.1400,0.5600,0.9100,1000.3297,8.8042,3.8685,1.9210,1590567159,N
69,2230010,8.8869,3.8740,2.0076,-0.3500,0.4200,0.2800,1000.3298,8.8037,3.8613,1.9381,1590567159,N
69,2227440,8.9444,3.8213,1.9454,-0.0700,0.2800,0.0700,1000.3298,8.8107,3.8456,1.9374,1590567159,N
69,2226856,8.9037,3.8524,1.9478,-0.1400,0.4200,0.2800,1000.3300,8.8128,3.8400,1.9391,1590567159,N
69,2226863,8.9228,3.8764,1.9525,0.1400,0.2100,0.2100,1000.3295,8.8137,3.8384,1.9381,1590567159,N
69,2227201,8.8654,3.9434,1.8903,-0.0700,0.5600,0.4200,1000.3287,8.8091,3.8532,1.9294,1590567159,N
69,2228335,8.8917,3.8118,1.8688,-0.3500,0.4900,0.0700,1000.3281,8.8157,3.8427,1.9200,1590567159,N
69,2229622,8.8606,3.9003,1.9502,-0.0700,0.7700,0.0700,1000.3268,8.8092,3.8531,1.9292,1590567159,N
69,2231148,8.9228,3.9577,1.9836,-0.2100,0.9100,0.5600,1000.3257,8.8026,3.8624,1.9405,1590567160,N
69,2230001,8.8822,3.7998,1.9286,0.3500,0.9100,0.7700,1000.3254,8.8090,3.8476,1.9412,1590567160,N
69,2226835,8.9515,3.8501,1.9525,0.3500,0.5600,-0.0700,1000.3257,8.8106,3.8435,1.9419,1590567160,N
69,2224836,8.8917,3.8644,1.9430,0.1400,0.4900,0.1400,1000.3264,8.8104,3.8439,1.9420,1590567160,N
69,2224412,8.9372,3.8285,1.9669,-0.2800,0.4900,0.1400,1000.3269,8.8141,3.8330,1.9468,1590567160,N
69,2224421,8.9420,3.8046,1.9454,-0.0700,0.7000,0.2100,1000.3267,8.8187,3.8219,1.9476,1590567160,N
69,2225027,8.9013,3.8836,1.9813,0.2100,0.8400,0.0700,1000.3256,8.8126,3.8317,1.9559,1590567160,N
68,2226563,8.9037,3.8333,1.9573,0.2100,0.8400,0.1400,1000.3251,8.8125,3.8308,1.9585,1590567160,N
69,2228397,8.9180,3.9123,1.9502,0.4900,0.5600,0.0700,1000.3245,8.8083,3.8423,1.9549,1590567160,N
69,2230138,8.9348,3.8477,1.9047,0.0700,0.2800,0.4200,1000.3246,8.8147,3.8340,1.9420,1590567161,N
69,2228386,8.9133,3.9027,1.9645,0.5600,0.4900,-0.2100,1000.3240,8.8092,3.8454,1.9445,1590567161,N
69,2225938,8.9061,3.9075,1.8975,0.6300,0.8400,-0.1400,1000.3235,8.8051,3.8591,1.9362,1590567161,N
68,2225305,8.9085,3.9218,1.9549,0.6300,0.5600,-0.2800,1000.3236,8.7996,3.8706,1.9383,1590567161,N
69,2225882,8.8989,3.8548,1.9143,0.7000,-0.0700,-0.4200,1000.3230,8.8032,3.8671,1.9288,1590567161,N
68,2226810,8.8343,3.8740,1.9190,0.1400,0.4200,-0.0700,1000.3224,8.8019,3.8701,1.9287,1590567161,N
69,2228049,8.8965,3.8213,1.9621,-0.0700,0.4200,0.1400,1000.3223,8.8065,3.8560,1.9357,1590567161,N
68,2229836,8.9563,3.9171,1.9119,-0.2100,0.4200,0.1400,1000.3217,8.8077,3.8569,1.9285,1590567161,N
68,2231846,8.9013,3.8931,1.9789,0.0700,0.5600,0.2800,1000.3211,8.8054,3.8574,1.9379,1590567161,N
68,2232968,8.8893,3.8118,1.9884,0.2800,-0.2100,0.3500,1000.3212,8.8121,3.8398,1.9424,1590567161,N
68,2231036,8.8846,3.8907,1.9573,0.9100,-0.0700,-0.0700,1000.3211,8.8098,3.8468,1.9392,1590567162,N
68,2228984,8.9013,3.8596,1.9454,0.4900,0.3500,-0.3500,1000.3203,8.8086,3.8495,1.9390,1590567162,N
68,2228514,8.9061,3.9027,1.9023,0.9100,-0.2100,-0.4200,1000.3198,8.8081,3.8579,1.9246,1590567162,N
68,2228898,8.8654,4.0128,1.8257,2.0300,0.3500,-0.1400,1000.3195,8.7982,3.8929,1.8992,1590567162,N
68,2228976,8.9252,3.9242,1.8951,2.5200,-0.1400,-0.1400,1000.3189,8.7979,3.8998,1.8864,1590567162,N
68,2229322,8.8726,3.7184,1.8353,8.4000,-0.1400,-0.9800,1000.3187,8.8014,3.9062,1.8565,1590567162,N
68,2229304,8.8822,4.0678,1.7970,-1.2600,3.5700,0.2100,1000.3193,8.7807,3.9462,1.8699,1590567162,N
68,2228835,8.8487,4.1037,1.8808,2.5200,-0.4200,-2.2400,1000.3199,8.7613,3.9933,1.8610,1590567162,N
68,2226320,8.9204,4.0391,1.7372,0.8400,-0.4200,-0.4200,1000.3206,8.7674,3.9958,1.8267,1590567162,N
68,2222421,8.8702,4.0175,1.7850,-0.4200,-0.4900,-0.7700,1000.3215,8.7712,3.9936,1.8135,1590567162,N
68,2220169,8.9300,4.1324,1.6917,-0.1400,0.4200,-0.2100,1000.3220,8.7686,4.0110,1.7869,1590567163,N
68,2219739,8.9444,4.0845,1.7611,-0.7700,0.4900,0.4900,1000.3226,8.7718,4.0071,1.7803,1590567163,N
68,2220028,8.8391,4.0702,1.7946,-1.5400,0.7000,0.6300,1000.3232,8.7708,4.0058,1.7882,1590567163,N
68,2221494,8.8726,4.0965,1.7779,-1.5400,1.6100,1.1900,1000.3235,8.7677,4.0089,1.7960,1590567163,N
68,2223448,8.8846,3.9745,1.7707,-1.8900,1.5400,1.6100,1000.3241,8.7774,3.9851,1.8019,1590567163,N
68,2225781,8.8032,3.9362,1.9430,-3.9200,1.4700,0.5600,1000.3250,8.7781,3.9618,1.8491,1590567163,N
68,2227182,8.8678,3.9314,2.0363,-1.8900,1.0500,1.3300,1000.3258,8.7805,3.9359,1.8928,1590567163,N
68,2225370,8.8295,3.9482,1.9932,-0.6300,0.2800,1.3300,1000.3256,8.7828,3.9214,1.9118,1590567163,N
68,2223647,8.8415,3.9625,2.0028,0.4200,0.6300,0.9800,1000.3251,8.7795,3.9207,1.9286,1590567163,N
68,2223359,8.7290,3.9697,2.2612,5.2500,-4.7600,0.2800,1000.3253,8.7784,3.9161,1.9427,1590567163,N
68,2223932,8.9276,3.7783,1.8592,5.9500,-8.8900,1.1200,1000.3249,8.8348,3.8383,1.8395,1590567163,N
68,2224764,8.9946,4.0152,1.4022,7.8400,-9.3100,-0.0700,1000.3245,8.8765,3.8253,1.6571,1590567164,N
68,2226441,9.0903,3.9290,1.0481,-2.6600,-3.7100,0.1400,1000.3230,8.9175,3.7915,1.5076,1590567164,N
68,2228397,8.9085,4.2473,1.5673,-4.4100,1.2600,-1.4000,1000.3221,8.8795,3.8683,1.5368,1590567164,N
69,2230288,9.0281,3.6634,1.6367,-15.1900,-5.9500,-1.4000,1000.3227,8.9393,3.7238,1.5465,1590567164,N
68,2230330,9.0162,3.7926,1.2897,3.7800,-2.7300,-4.2700,1000.3234,8.9388,3.7566,1.4684,1590567164,N
68,2227413,8.9898,4.0056,1.2179,0.1400,5.0400,-0.5600,1000.3243,8.9047,3.8420,1.4547,1590567164,N
68,2224657,8.8534,4.1013,1.7109,-1.1900,8.7500,-1.1200,1000.3244,8.8296,3.9664,1.5738,1590567164,N
68,2223358,8.8630,3.9649,1.7515,1.6100,1.6100,0.3500,1000.3249,8.8162,3.9794,1.6150,1590567164,N
68,2222989,8.9180,4.0965,1.4979,2.3100,0.6300,-0.4200,1000.3245,8.8062,4.0125,1.5875,1590567164,N
68,2223826,8.9396,3.9840,1.5625,-2.8700,0.9100,-1.4700,1000.3245,8.8085,4.0045,1.5950,1590567165,N
68,2225201,8.8295,4.0917,1.7276,-1.1900,1.4700,-0.7000,1000.3245,8.7907,4.0280,1.6337,1590567165,N
68,2226558,8.8582,4.0534,1.6415,-2.3100,0.9100,-0.7000,1000.3246,8.7877,4.0295,1.6463,1590567165,N
69,2226793,8.8798,4.1109,1.6080,-2.4500,1.2600,-0.1400,1000.3253,8.7836,4.0366,1.6509,1590567165,N
68,2224339,8.8271,4.0654,1.7300,-2.8000,1.4700,-0.3500,1000.3256,8.7765,4.0387,1.6829,1590567165,N
68,2221880,8.8534,4.0415,1.7683,-2.8700,1.1900,-0.0700,1000.3267,8.7750,4.0292,1.7132,1590567165,N
68,2221118,8.8032,4.0080,1.7683,-5.6700,0.1400,-1.1200,1000.3264,8.7794,4.0079,1.7402,1590567165,N
69,2221108,8.8558,4.1348,1.7874,-3.6400,0.4900,-1.5400,1000.3256,8.7686,4.0228,1.7601,1590567165,N
68,2221612,8.8343,4.1109,1.7611,0.2100,-0.2800,-1.5400,1000.3251,8.7598,4.0436,1.7564,1590567165,N
68,2223285,8.7912,4.0917,1.7827,-0.2800,-2.1700,-0.2800,1000.3245,8.7668,4.0337,1.7446,1590567165,N
68,2225856,8.8080,4.0487,1.7037,-0.5600,-6.7900,-3.0800,1000.3249,8.7909,4.0044,1.6895,1590567166,N
69,2229363,8.8606,4.1396,1.6439,-6.5100,-3.6400,-4.2000,1000.3245,8.7966,3.9996,1.6714,1590567166,N
69,2228795,8.8080,4.1133,1.5242,0.1400,-2.9400,-3.7100,1000.3242,8.7944,4.0244,1.6229,1590567166,N
68,2226580,8.8917,4.2520,1.5218,-1.6100,0.4200,-2.8000,1000.3231,8.7751,4.0719,1.6085,1590567166,N
68,2224559,8.8176,4.2688,1.6869,-4.9000,0.3500,-3.6400,1000.3210,8.7515,4.1100,1.6399,1590567166,N
68,2224017,8.8032,4.4028,1.6750,-10.9200,-0.5600,-1.1900,1000.3196,8.7467,4.1092,1.6672,1590567166,N
69,2223762,8.7482,4.0582,1.7180,-11.2700,-1.0500,-1.5400,1000.3195,8.7643,4.0575,1.7013,1590567166,N
68,2223621,8.8104,4.4530,1.8066,-8.6800,2.2400,3.0800,1000.3203,8.7484,4.0708,1.7503,1590567166,N
69,2223817,8.8104,4.1157,1.8712,1.9600,2.7300,0.4900,1000.3211,8.7293,4.0964,1.7857,1590567166,N
68,2224186,8.8032,4.1420,1.9693,-0.4900,4.5500,3.3600,1000.3215,8.7147,4.0998,1.8483,1590567166,N
69,2222668,8.7625,4.1635,2.0339,0.5600,4.2000,3.6400,1000.3221,8.6991,4.1066,1.9057,1590567167,N
69,2218794,8.8008,4.0798,2.0267,0.2800,2.5200,0.5600,1000.3234,8.6910,4.1063,1.9429,1590567167,N
69,2214351,8.7099,4.1157,2.0818,-0.1400,2.1000,-0.3500,1000.3240,8.6750,4.1201,1.9848,1590567167,N
68,2212134,8.7410,4.0774,2.1703,-0.0700,-0.0700,1.0500,1000.3246,8.6793,4.0955,2.0165,1590567167,N
69,2211585,8.7793,4.0798,2.0363,-0.2100,-0.2100,0.2100,1000.3247,8.6862,4.0813,2.0156,1590567167,N
69,2211142,8.7769,3.9697,2.1224,-1.7500,-0.4900,1.1200,1000.3253,8.7038,4.0346,2.0339,1590567167,N
69,2211337,8.7506,3.8453,2.0530,-2.3800,-1.2600,-0.0700,1000.3256,8.7275,3.9818,2.0363,1590567167,N
69,2212330,8.8080,4.0056,2.0411,-0.6300,-1.5400,0.3500,1000.3254,8.7382,3.9649,2.0234,1590567167,N
69,2214244,8.8128,4.0463,1.8736,1.5400,-1.2600,-0.1400,1000.3250,8.7443,3.9747,1.9774,1590567167,N
69,2215211,8.8702,3.7591,1.9382,0.5600,1.3300,-3.5000,1000.3240,8.7456,3.9689,1.9832,1590567167,N
69,2212965,8.7003,4.3860,2.1535,6.7200,0.9800,-3.0100,1000.3233,8.6819,4.0960,2.0046,1590567168,N
69,2211425,8.7290,4.0152,1.7850,4.4800,3.9200,-5.3900,1000.3224,8.6500,4.1716,1.9864,1590567168,N
69,2210421,8.6620,4.3358,2.0770,-0.4900,1.3300,-1.6800,1000.3214,8.6222,4.2157,2.0137,1590567168,N
69,2209746,8.7482,4.4865,1.9741,3.7800,1.7500,-0.3500,1000.3215,8.5931,4.2812,2.0001,1590567168,N
69,2209581,8.7027,4.2377,2.1511,-1.8900,0.2100,0.1400,1000.3213,8.5988,4.2545,2.0321,1590567168,N
69,2209592,8.6907,4.2233,1.9860,0.9100,-1.1900,-0.1400,1000.3210,8.6109,4.2408,2.0096,1590567168,N
69,2210101,8.6907,4.2162,1.8114,0.2100,-0.2800,-0.2100,1000.3203,8.6233,4.2356,1.9667,1590567168,N
69,2210669,8.6668,4.2903,1.8999,-0.2800,-0.5600,-0.2800,1000.3200,8.6255,4.2396,1.9485,1590567168,N
69,2209060,8.7458,4.3980,1.9119,-0.2800,1.1900,0.4900,1000.3201,8.6169,4.2594,1.9436,1590567168,N
69,2206770,8.6453,4.3238,1.9190,1.4000,0.5600,0.2100,1000.3205,8.6099,4.2765,1.9368,1590567168,N
69,2207251,8.7721,4.2090,1.9310,-2.2400,0.8400,-0.2100,1000.3209,8.6211,4.2507,1.9439,1590567169,N
69,2209039,8.7290,4.2257,1.9621,-0.0700,-0.6300,0.5600,1000.3212,8.6328,4.2291,1.9389,1590567169,N
69,2211465,8.6764,4.4435,1.9047,1.8200,0.1400,-0.1400,1000.3220,8.6157,4.2709,1.9237,1590567169,N
69,2214396,8.7482,4.3095,1.8640,-0.4200,0.6300,1.1900,1000.3229,8.6232,4.2612,1.9113,1590567169,N
69,2217432,8.7266,4.2903,1.9310,-0.5600,2.0300,0.8400,1000.3233,8.6192,4.2625,1.9264,1590567169,N
69,2220726,8.7601,4.2018,1.9071,2.3800,2.5200,1.6100,1000.3226,8.6210,4.2578,1.9287,1590567169,N
69,2222733,8.6812,4.2879,2.0937,-1.4700,3.3600,2.1700,1000.3218,8.6107,4.2536,1.9830,1590567169,N
69,2220949,8.6859,4.1252,2.0100,4.4100,-1.6100,-0.3500,1000.3220,8.6227,4.2380,1.9645,1590567169,N
69,2219324,8.6859,4.4100,1.9071,1.4000,-0.2800,0.4200,1000.3223,8.6154,4.2631,1.9422,1590567169,N
69,2219038,8.6644,4.0439,1.9358,15.0500,-8.6100,0.4200,1000.3234,8.6549,4.2285,1.8391,1590567169,N
69,2220621,8.7960,4.4459,1.5003,4.4800,-4.3400,-1.1900,1000.3233,8.6649,4.2565,1.7242,1590567170,N
69,2222414,8.7769,4.4195,1.5458,-0.5600,0.0700,-1.6100,1000.3236,8.6568,4.2873,1.6881,1590567170,N
69,2223534,8.7888,4.3502,1.6415,-1.2600,1.0500,-0.0700,1000.3243,8.6556,4.2908,1.6854,1590567170,N
69,2225050,8.7649,4.4913,1.5266,-1.5400,1.4000,0.2100,1000.3251,8.6462,4.3183,1.6630,1590567170,N
70,2226334,8.7386,4.3358,1.6606,0.0700,0.8400,1.0500,1000.3261,8.6487,4.3128,1.6643,1590567170,N
69,2224864,8.7482,4.3669,1.5864,1.8900,1.1200,1.0500,1000.3262,8.6455,4.3257,1.6475,1590567170,N
69,2223117,8.7553,4.3693,1.5697,-0.6300,1.1900,0.2100,1000.3271,8.6447,4.3305,1.6388,1590567170,N
69,2222106,8.7051,4.3262,1.7037,-2.1000,-1.0500,-0.9100,1000.3281,8.6522,4.3119,1.6486,1590567170,N
69,2222221,8.7649,4.2927,1.8640,-7.7000,-1.1900,-2.5200,1000.3281,8.6625,4.2702,1.7017,1590567170,N
69,2222629,8.7242,4.2520,1.7133,-3.3600,-0.2800,-1.4700,1000.3281,8.6676,4.2561,1.7110,1590567170,N
69,2223965,8.6979,4.4387,1.6726,-0.0700,-1.6100,-1.6800,1000.3276,8.6583,4.2833,1.6905,1590567170,N
69,2226237,8.7482,4.3502,1.6606,0.4200,-0.9100,-0.1400,1000.3276,8.6617,4.2831,1.6733,1590567171,N
70,2228679,8.7099,4.4219,1.6152,0.1400,0.7700,0.4200,1000.3268,8.6525,4.3054,1.6634,1590567171,N
70,2229019,8.7673,4.3884,1.6893,-0.3500,1.1200,0.4200,1000.3271,8.6468,4.3134,1.6724,1590567171,N
69,2226437,8.7003,4.4435,1.6582,0.0700,0.8400,0.4900,1000.3274,8.6370,4.3333,1.6716,1590567171,N
70,2224639,8.6716,4.4195,1.6798,-0.1400,0.1400,-0.2100,1000.3277,8.6303,4.3464,1.6725,1590567171,N
69,2225063,8.7434,4.4363,1.5793,-0.9800,-0.4200,0.3500,1000.3276,8.6370,4.3421,1.6491,1590567171,N
70,2225686,8.6836,4.4554,1.5817,0.2100,0.4200,0.1400,1000.3269,8.6302,4.3607,1.6354,1590567171,N
69,2227011,8.7338,4.3717,1.6678,-0.2800,0.3500,0.1400,1000.3252,8.6322,4.3543,1.6416,1590567171,N
70,2228622,8.7123,4.4291,1.6056,-0.4200,0.4200,-0.1400,1000.3242,8.6290,4.3629,1.6356,1590567171,N
70,2230547,8.6931,4.4004,1.6128,0.1400,0.4900,0.3500,1000.3234,8.6281,4.3663,1.6315,1590567172,N
70,2232406,8.7147,4.3549,1.6391,0.5600,0.2800,0.0700,1000.3233,8.6302,4.3623,1.6311,1590567172,N
70,2231280,8.6883,4.4219,1.6247,0.6300,0.2800,0.1400,1000.3228,8.6261,4.3718,1.6275,1590567172,N
70,2228509,8.7506,4.4435,1.5649,0.4200,0.4900,0.2800,1000.3231,8.6253,4.3786,1.6129,1590567172,N
70,2226928,8.7338,4.3813,1.6080,0.8400,0.1400,0.2100,1000.3228,8.6284,4.3746,1.6074,1590567172,N
70,2227167,8.7649,4.3741,1.5888,-0.2100,0.4200,-0.0700,1000.3228,8.6328,4.3673,1.6036,1590567172,N
70,2227496,8.6668,4.3430,1.6319,0.2800,0.4200,0.4200,1000.3230,8.6343,4.3619,1.6103,1590567172,N
70,2228284,8.7027,4.4148,1.6558,-0.2800,0.1400,0.4900,1000.3232,8.6338,4.3601,1.6176,1590567172,N
70,2229374,8.7242,4.3286,1.6056,0.2800,-0.0700,0.4200,1000.3242,8.6422,4.3458,1.6114,1590567172,N
70,2230928,8.7003,4.3860,1.6510,-0.5600,0.2100,0.5600,1000.3249,8.6429,4.3415,1.6193,1590567172,N
70,2231076,8.6836,4.2927,1.6247,-0.5600,0.2800,0.2800,1000.3248,8.6492,4.3276,1.6231,1590567173,N
70,2227755,8.7171,4.3238,1.6439,0.1400,0.3500,0.2100,1000.3243,8.6505,4.3233,1.6272,1590567173,N
70,2224816,8.7194,4.3525,1.6367,-0.3500,0.3500,0.2100,1000.3234,8.6507,4.3220,1.6298,1590567173,N
70,2223892,8.6955,4.3597,1.6510,-0.0700,0.4900,-0.1400,1000.3223,8.6460,4.3291,1.6360,1590567173,N
70,2223810,8.6907,4.4172,1.6271,0.3500,0.5600,-0.1400,1000.3215,8.6370,4.3474,1.6350,1590567173,N
70,2224343,8.7625,4.4219,1.6295,0.0700,0.5600,-0.2100,1000.3201,8.6328,4.3563,1.6333,1590567173,N
70,2225279,8.7362,4.3478,1.6199,-0.2800,0.4900,0.3500,1000.3184,8.6378,4.3470,1.6318,1590567173,N
70,2226048,8.7171,4.3430,1.6104,0.2100,0.0700,-0.2100,1000.3171,8.6405,4.3439,1.6256,1590567173,N
70,2227022,8.7075,4.4124,1.5601,-0.4900,1.5400,0.1400,1000.3154,8.6330,4.3599,1.6224,1590567173,N
70,2226276,8.7290,4.3382,1.7587,0.9800,0.7000,-0.6300,1000.3141,8.6266,4.3625,1.6493,1590567173,N
70,2223286,8.7506,4.3382,1.6104,0.4900,0.4900,-0.1400,1000.3134,8.6308,4.3574,1.6409,1590567174,N
70,2221355,8.7721,4.3932,1.5936,-0.9100,1.4000,0.6300,1000.3133,8.6324,4.3549,1.6391,1590567174,N
70,2221655,8.7290,4.2855,1.7611,-0.4900,0.9100,0.4900,1000.3131,8.6369,4.3350,1.6683,1590567174,N
70,2222547,8.7529,4.3358,1.6487,-0.1400,0.6300,0.5600,1000.3130,8.6417,4.3264,1.6654,1590567174,N
70,2223825,8.7386,4.3669,1.6845,-0.4200,0.7700,0.1400,1000.3138,8.6395,4.3281,1.6722,1590567174,N
70,2225530,8.6836,4.2808,1.7707,-0.2100,0.7700,0.1400,1000.3137,8.6392,4.3192,1.6966,1590567174,N
70,2227363,8.6668,4.3095,1.7396,0.2100,0.3500,0.1400,1000.3126,8.6382,4.3175,1.7061,1590567174,N
70,2229420,8.7506,4.3621,1.7276,0.6300,0.0700,0.0700,1000.3124,8.6378,4.3188,1.7049,1590567174,N
70,2228243,8.7099,4.3262,1.7420,0.9100,0.0700,-0.2100,1000.3132,8.6363,4.3205,1.7080,1590567174,N
70,2225264,8.7362,4.4004,1.6415,0.4200,0.3500,-0.0700,1000.3140,8.6336,4.3322,1.6925,1590567174,N
70,2223884,8.7194,4.4076,1.6534,0.1400,0.7700,0.1400,1000.3145,8.6288,4.3440,1.6863,1590567175,N
70,2224028,8.7123,4.3334,1.6558,0.4200,0.4900,-0.2100,1000.3144,8.6298,4.3441,1.6808,1590567175,N
70,2224505,8.6955,4.3932,1.6295,0.9800,0.4200,-0.2100,1000.3142,8.6252,4.3578,1.6688,1590567175,N
70,2225477,8.6979,4.3310,1.6654,0.7700,0.2800,0.2100,1000.3141,8.6285,4.3524,1.6661,1590567175,N
70,2226778,8.6955,4.3932,1.6726,0.7000,0.2800,0.0700,1000.3145,8.6254,4.3590,1.6648,1590567175,N
70,2228391,8.7266,4.3621,1.6391,0.1400,0.4900,0.1400,1000.3149,8.6281,4.3557,1.6599,1590567175,N
70,2229090,8.7553,4.2401,1.6295,-0.9800,0.5600,0.4900,1000.3153,8.6446,4.3234,1.6582,1590567175,N
70,2226353,8.7242,4.3669,1.5769,0.2800,0.4900,0.2800,1000.3156,8.6450,4.3288,1.6420,1590567175,N
70,2223522,8.6836,4.3669,1.6152,-0.2800,0.3500,0.1400,1000.3155,8.6437,4.3327,1.6383,1590567175,N
70,2222909,8.7434,4.3502,1.6271,-0.2800,0.6300,-0.0700,1000.3150,8.6439,4.3323,1.6384,1590567175,N
70,2223154,8.7697,4.3645,1.6439,-0.2800,0.7000,0.2800,1000.3143,8.6447,4.3298,1.6409,1590567175,N
70,2223864,8.7194,4.3143,1.6487,-0.0700,0.8400,-0.0700,1000.3135,8.6442,4.3285,1.6468,1590567176,N
70,2225012,8.7410,4.3358,1.6391,-0.2100,0.7700,0.1400,1000.3130,8.6449,4.3265,1.6484,1590567176,N
70,2226356,8.7266,4.3382,1.6487,-0.2100,0.7700,0.1400,1000.3137,8.6444,4.3262,1.6519,1590567176,N
70,2228037,8.7434,4.4291,1.6080,-0.2100,0.7700,-0.0700,1000.3141,8.6380,4.3415,1.6453,1590567176,N
70,2227886,8.7673,4.3454,1.6247,0.2100,0.9100,-0.1400,1000.3146,8.6379,4.3422,1.6437,1590567176,N
70,2225100,8.7194,4.4004,1.6678,0.2100,1.4700,0.0700,1000.3154,8.6281,4.3574,1.6551,1590567176,N
70,2223013,8.8104,4.3071,1.7492,0.4900,0.2100,-0.0700,1000.3157,8.6351,4.3382,1.6689,1590567176,N
70,2223092,8.8199,4.4004,1.5721,-0.0700,0.0700,0.0700,1000.3161,8.6412,4.3353,1.6446,1590567176,N
70,2223837,8.7051,4.3884,1.7444,-0.0700,0.4900,0.2100,1000.3166,8.6354,4.3393,1.6646,1590567176,N
70,2224874,8.6979,4.3310,1.6702,0.2100,0.4900,-0.0700,1000.3170,8.6353,4.3386,1.6671,1590567177,N
70,2226173,8.7123,4.3597,1.6534,-0.1400,0.2800,0.1400,1000.3173,8.6368,4.3367,1.6641,1590567177,N
70,2227576,8.7290,4.3238,1.6247,0.2100,0.2100,0.1400,1000.3169,8.6420,4.3299,1.6548,1590567177,N
70,2229187,8.6836,4.4411,1.6463,0.1400,0.6300,0.2100,1000.3168,8.6326,4.3487,1.6543,1590567177,N
70,2228997,8.7218,4.3143,1.6965,0.5600,0.4200,-0.1400,1000.3167,8.6341,4.3429,1.6620,1590567177,N
70,2226384,8.6955,4.3406,1.6367,0.0700,0.4200,-0.1400,1000.3164,8.6347,4.3431,1.6584,1590567177,N
70,2224789,8.6859,4.3382,1.6247,0.2100,0.4200,-0.1400,1000.3156,8.6350,4.3445,1.6530,1590567177,N
70,2224960,8.7745,4.3789,1.6199,0.3500,0.3500,-0.1400,1000.3157,8.6362,4.3456,1.6438,1590567177,N
70,2225416,8.7242,4.3238,1.6702,0.2100,0.7700,0.0700,1000.3163,8.6367,4.3417,1.6516,1590567177,N
70,2226325,8.6979,4.4315,1.6223,0.2100,0.5600,0.2100,1000.3171,8.6306,4.3557,1.6462,1590567177,N
70,2227548,8.7027,4.3765,1.5840,0.4900,0.5600,0.0700,1000.3170,8.6301,4.3612,1.6344,1590567178,N
70,2228869,8.7075,4.4028,1.6247,0.1400,0.5600,0.3500,1000.3163,8.6287,4.3646,1.6330,1590567178,N
70,2229496,8.7075,4.3167,1.6989,-0.5600,0.2100,0.6300,1000.3148,8.6368,4.3433,1.6465,1590567178,N
70,2226528,8.7266,4.3860,1.6271,-0.6300,0.9800,0.2100,1000.3138,8.6348,4.3467,1.6481,1590567178,N
70,2223117,8.8247,4.3621,1.7252,-0.6300,0.9100,0.1400,1000.3136,8.6368,4.3363,1.6653,1590567178,N
69,2221799,8.7099,4.3813,1.6630,1.4000,0.7000,0.1400,1000.3141,8.6305,4.3496,1.6631,1590567178,N
70,2222138,8.7362,4.4076,1.6798,0.2100,0.7000,-0.0700,1000.3143,8.6256,4.3578,1.6669,1590567178,N
69,2223213,8.7577,4.3334,1.6343,0.1400,0.7000,-0.0700,1000.3146,8.6299,4.3512,1.6619,1590567178,N
70,2224859,8.7793,4.3645,1.7061,-0.2100,0.6300,0.0700,1000.3141,8.6316,4.3445,1.6709,1590567178,N
69,2226744,8.6907,4.3406,1.7157,0.7700,0.4200,0.0700,1000.3136,8.6297,4.3452,1.6787,1590567178,N
70,2228794,8.7027,4.3573,1.6223,-0.0700,1.5400,0.2800,1000.3135,8.6265,4.3524,1.6765,1590567179,N
69,2229421,8.7386,4.2640,1.7037,-0.2800,0.9100,0.2800,1000.3126,8.6345,4.3325,1.6869,1590567179,N
69,2227099,8.6812,4.3765,1.7228,0.4200,0.3500,0.1400,1000.3123,8.6300,4.3391,1.6930,1590567179,N
69,2225222,8.7051,4.3837,1.7037,-0.2100,0.2100,0.2800,1000.3120,8.6300,4.3386,1.6939,1590567179,N
70,2225236,8.7338,4.3047,1.7061,0.2800,0.1400,0.2100,1000.3116,8.6365,4.3258,1.6937,1590567179,N
69,2226132,8.7338,4.3310,1.6750,-0.0700,0.4200,0.2100,1000.3116,8.6397,4.3208,1.6901,1590567179,N
69,2227227,8.7051,4.3884,1.6654,-0.0700,0.4900,0.2100,1000.3118,8.6365,4.3289,1.6859,1590567179,N
69,2228686,8.7362,4.3382,1.7061,0.1400,0.4900,0.2100,1000.3116,8.6376,4.3253,1.6896,1590567179,N
69,2230463,8.7075,4.3525,1.6128,-0.2100,0.2800,0.2800,1000.3115,8.6409,4.3245,1.6745,1590567179,N
69,2232499,8.7242,4.3478,1.6463,-0.4900,0.6300,0.2800,1000.3113,8.6423,4.3227,1.6718,1590567179,N
69,2231889,8.7099,4.4554,1.7157,0.5600,0.4900,0.1400,1000.3107,8.6306,4.3437,1.6782,1590567180,N
69,2229273,8.7553,4.3621,1.6343,0.4900,0.4200,0.0700,1000.3100,8.6329,4.3431,1.6674,1590567180,N
69,2227566,8.6859,4.3143,1.6558,0.9100,0.4200,-0.1400,1000.3096,8.6331,4.3437,1.6648,1590567180,N
70,2227719,8.6979,4.3478,1.6439,1.1900,0.6300,-0.0700,1000.3097,8.6301,4.3515,1.6602,1590567180,N
69,2227942,8.7649,4.3143,1.6463,0.4900,0.5600,0.2100,1000.3098,8.6362,4.3408,1.6566,1590567180,N
69,2228802,8.6740,4.3597,1.6750,0.3500,0.2800,0.0700,1000.3101,8.6339,4.3441,1.6598,1590567180,N
69,2229988,8.7410,4.3765,1.5984,0.4200,0.4900,0.2100,1000.3102,8.6352,4.3466,1.6465,1590567180,N
69,2231351,8.7577,4.3765,1.6558,0.1400,1.0500,0.5600,1000.3102,8.6343,4.3466,1.6509,1590567180,N
69,2232197,8.7147,4.2975,1.7180,-0.9800,0.4900,0.5600,1000.3101,8.6416,4.3257,1.6679,1590567180,N
69,2229394,8.7601,4.3310,1.6487,-0.1400,0.5600,0.1400,1000.3098,8.6448,4.3205,1.6649,1590567180,N
69,2226486,8.6955,4.2903,1.7013,-0.1400,0.5600,0.3500,1000.3102,8.6470,4.3121,1.6749,1590567180,N
69,2225484,8.7697,4.3932,1.6534,0.2100,0.6300,0.2800,1000.3107,8.6441,4.3199,1.6697,1590567181,N
69,2225368,8.7936,4.3884,1.7085,0.2800,0.7000,0.2100,1000.3105,8.6408,4.3241,1.6758,1590567181,N
69,2225848,8.7266,4.3502,1.6199,0.5600,0.4900,0.1400,1000.3107,8.6410,4.3284,1.6640,1590567181,N
69,2226772,8.7362,4.3669,1.6630,0.1400,0.6300,0.0700,1000.3114,8.6388,4.3325,1.6645,1590567181,N
69,2228106,8.7434,4.3358,1.6582,0.2100,0.3500,0.2800,1000.3113,8.6422,4.3268,1.6619,1590567181,N
69,2229548,8.7745,4.3813,1.6654,-0.1400,0.9800,0.1400,1000.3113,8.6392,4.3314,1.6652,1590567181,N
69,2229209,8.7577,4.2281,1.6654,-0.1400,1.0500,-0.2800,1000.3118,8.6459,4.3155,1.6717,1590567181,N
69,2226076,8.7171,4.3454,1.7133,-0.0700,0.9100,-0.2800,1000.3125,8.6396,4.3233,1.6842,1590567181,N
69,2223775,8.7601,4.3382,1.6654,-0.0700,0.4200,-0.1400,1000.3128,8.6416,4.3209,1.6802,1590567181,N
69,2223512,8.7577,4.2951,1.6917,0.1400,0.2100,0.0700,1000.3126,8.6473,4.3094,1.6804,1590567182,N
69,2223948,8.6931,4.3597,1.7324,-0.0700,0.2100,0.0700,1000.3121,8.6432,4.3139,1.6899,1590567182,N
69,2224746,8.7338,4.3549,1.6750,0.2100,0.2100,0.0700,1000.3112,8.6432,4.3159,1.6846,1590567182,N
69,2226205,8.7075,4.3454,1.7085,0.2100,0.4900,-0.1400,1000.3112,8.6394,4.3214,1.6900,1590567182,N
69,2227952,8.7099,4.3382,1.6487,0.2100,0.1400,-0.1400,1000.3109,8.6407,4.3227,1.6803,1590567182,N
69,2229801,8.7362,4.3549,1.6415,0.1400,0.6300,0.4200,1000.3105,8.6416,4.3236,1.6732,1590567182,N
69,2229112,8.7194,4.3884,1.7109,0.5600,0.7700,0.0700,1000.3104,8.6339,4.3358,1.6811,1590567182,N
69,2225809,8.7434,4.2544,1.6965,0.2800,0.0700,0.1400,1000.3096,8.6444,4.3147,1.6817,1590567182,N
69,2223545,8.7745,4.3573,1.5984,0.2100,0.2800,-0.0700,1000.3085,8.6470,4.3169,1.6627,1590567182,N
69,2223079,8.7793,4.3908,1.5769,0.8400,0.6300,0.2100,1000.3080,8.6452,4.3278,1.6434,1590567182,N
69,2223049,8.7218,4.3358,1.6941,-0.2800,0.5600,0.3500,1000.3076,8.6455,4.3227,1.6552,1590567183,N
69,2223514,8.7625,4.3956,1.6941,0.1400,0.4900,0.1400,1000.3079,8.6416,4.3283,1.6612,1590567183,N
69,2224435,8.7051,4.3908,1.5697,0.1400,0.7700,0.1400,1000.3086,8.6382,4.3409,1.6458,1590567183,N
69,2225732,8.7051,4.2999,1.6654,-0.3500,0.6300,0.4200,1000.3089,8.6429,4.3287,1.6533,1590567183,N
69,2226571,8.8128,4.2927,1.6606,-0.3500,0.0700,0.4200,1000.3089,8.6550,4.3052,1.6513,1590567183,N
69,2223633,8.7099,4.3813,1.6774,0.5600,0.4200,0.0700,1000.3090,8.6476,4.3185,1.6551,1590567183,N
69,2220130,8.7864,4.3214,1.6917,0.4200,0.3500,0.1400,1000.3082,8.6503,4.3115,1.6593,1590567183,N
69,2218500,8.7936,4.3262,1.6630,0.0700,0.4900,0.1400,1000.3083,8.6531,4.3061,1.6588,1590567183,N
69,2218513,8.7410,4.4004,1.6247,-0.2100,0.7700,0.1400,1000.3094,8.6475,4.3190,1.6543,1590567183,N
69,2218851,8.7171,4.3119,1.7061,-0.2800,1.0500,-0.2100,1000.3105,8.6436,4.3204,1.6710,1590567183,N
69,2219892,8.7171,4.3502,1.7444,-0.3500,1.4000,0.2100,1000.3110,8.6364,4.3261,1.6933,1590567184,N
68,2221320,8.7577,4.3430,1.7037,0.4900,0.0700,-0.1400,1000.3117,8.6383,4.3234,1.6908,1590567184,N
69,2223230,8.7099,4.4315,1.6152,0.2800,0.7700,0.0700,1000.3117,8.6309,4.3434,1.6773,1590567184,N
69,2223273,8.7027,4.3262,1.7659,0.2800,0.2800,-0.1400,1000.3119,8.6302,4.3383,1.6939,1590567184,N
69,2220518,8.7482,4.3382,1.6415,0.4200,0.1400,-0.1400,1000.3123,8.6348,4.3345,1.6803,1590567184,N
69,2218010,8.6931,4.3645,1.6774,0.4200,0.5600,0.2100,1000.3124,8.6321,4.3398,1.6802,1590567184,N
69,2218030,8.7386,4.3478,1.7109,0.3500,0.0700,-0.0700,1000.3124,8.6340,4.3352,1.6825,1590567184,N
69,2218626,8.6716,4.3549,1.7348,0.0700,0.2100,0.3500,1000.3118,8.6328,4.3338,1.6921,1590567184,N
69,2219530,8.7434,4.3502,1.7396,0.3500,0.2100,-0.0700,1000.3114,8.6329,4.3311,1.6983,1590567184,N
69,2220981,8.7171,4.3908,1.6223,0.2800,-0.1400,0.2100,1000.3115,8.6354,4.3340,1.6782,1590567184,N
69,2222637,8.6955,4.3813,1.6319,0.1400,0.2800,0.3500,1000.3120,8.6354,4.3379,1.6680,1590567185,N
69,2223875,8.7314,4.3334,1.6319,0.1400,0.4200,0.4900,1000.3126,8.6406,4.3306,1.6604,1590567185,N
69,2221693,8.7003,4.3549,1.5984,0.3500,0.5600,0.0700,1000.3130,8.6396,4.3367,1.6493,1590567185,N
69,2218614,8.7338,4.3621,1.6774,-0.4900,0.7000,0.2100,1000.3142,8.6391,4.3346,1.6578,1590567185,N
68,2217454,8.7529,4.3621,1.6271,0.3500,0.6300,0.0700,1000.3149,8.6389,4.3372,1.6517,1590567185,N
69,2217635,8.7123,4.3813,1.7252,0.4200,0.4900,0.0700,1000.3151,8.6334,4.3430,1.6654,1590567185,N
69,2218044,8.6668,4.2808,1.6774,0.2800,-0.0700,-0.2800,1000.3155,8.6381,4.3331,1.6667,1590567185,N
69,2219141,8.6883,4.3980,1.6104,1.1200,0.2800,-0.1400,1000.3158,8.6325,4.3496,1.6525,1590567185,N
69,2220362,8.7242,4.2927,1.6726,2.1700,0.3500,-0.0700,1000.3165,8.6338,4.3475,1.6514,1590567185,N
69,2221737,8.7027,4.3382,1.7133,1.8900,0.1400,-0.4900,1000.3168,8.6291,4.3543,1.6579,1590567185,N
69,2221307,8.7027,4.3813,1.6008,2.8000,-0.9100,-0.9800,1000.3167,8.6269,4.3687,1.6311,1590567185,N
69,2217866,8.7506,4.4100,1.5386,4.1300,-1.1200,-0.9100,1000.3164,8.6252,4.3870,1.5908,1590567186,N
69,2214909,8.7482,4.4913,1.4309,3.2200,-1.1900,-0.2800,1000.3154,8.6252,4.4058,1.5380,1590567186,N
69,2214057,8.7362,4.5153,1.3400,1.3300,-0.0700,-0.5600,1000.3151,8.6215,4.4289,1.4917,1590567186,N
69,2214151,8.7362,4.4602,1.5099,-0.7700,0.2100,-0.7000,1000.3150,8.6214,4.4277,1.4960,1590567186,N
69,2214742,8.7625,4.5440,1.3304,-0.1400,0.4900,-0.7000,1000.3155,8.6172,4.4467,1.4633,1590567186,N
69,2215907,8.7003,4.4722,1.4070,-1.8200,1.5400,0.7000,1000.3152,8.6185,4.4436,1.4653,1590567186,N
69,2217717,8.7721,4.4411,1.4668,-1.3300,1.6800,0.6300,1000.3157,8.6213,4.4342,1.4768,1590567186,N
69,2220054,8.6548,4.4698,1.4668,-2.8700,1.8200,1.4700,1000.3157,8.6227,4.4262,1.4930,1590567186,N
69,2219110,8.6740,4.4076,1.5697,-3.2900,2.5200,1.2600,1000.3157,8.6228,4.4123,1.5326,1590567186,N
69,2217307,8.6405,4.3860,1.6893,-3.0100,2.5900,1.4700,1000.3159,8.6198,4.3986,1.5883,1590567187,N
69,2216885,8.6333,4.4100,1.8233,-0.9800,1.5400,0.3500,1000.3159,8.6079,4.4005,1.6463,1590567187,N
69,2217710,8.6836,4.3071,1.7539,2.1700,0.4900,-0.1400,1000.3151,8.6079,4.3938,1.6642,1590567187,N
69,2218543,8.7482,4.3860,1.5721,0.7700,0.3500,0.3500,1000.3136,8.6152,4.3876,1.6425,1590567187,N
69,2219701,8.7123,4.3071,1.6463,-0.2100,0.5600,-0.2100,1000.3110,8.6223,4.3721,1.6465,1590567187,N
69,2221528,8.6716,4.4818,1.6726,-0.4200,1.9600,0.9800,1000.3084,8.6094,4.3914,1.6627,1590567187,N
69,2223124,8.6836,4.3286,1.8018,-0.4200,0.6300,0.5600,1000.3058,8.6137,4.3712,1.6934,1590567187,N
69,2221558,8.6955,4.4674,1.7515,1.1200,0.4900,0.1400,1000.3041,8.6038,4.3877,1.7009,1590567187,N
69,2218993,8.7577,4.3597,1.6391,-0.7000,0.8400,0.2800,1000.3031,8.6127,4.3735,1.6925,1590567187,N
69,2217789,8.6788,4.4148,1.6917,-0.9800,1.7500,1.4700,1000.3024,8.6112,4.3722,1.7035,1590567187,N
69,2218110,8.6548,4.2855,1.7276,-1.2600,1.4700,0.6300,1000.3022,8.6166,4.3544,1.7216,1590567188,N
69,2218881,8.7099,4.3095,1.7515,-0.9100,1.6100,0.5600,1000.3019,8.6190,4.3428,1.7387,1590567188,N
69,2219919,8.6740,4.3525,1.8903,-0.7000,1.3300,0.2100,1000.3030,8.6114,4.3424,1.7772,1590567188,N
69,2221775,8.7721,4.2066,1.7970,1.4000,0.2800,0.2100,1000.3036,8.6255,4.3147,1.7762,1590567188,N
69,2223823,8.7601,4.3549,1.7468,0.2100,1.5400,0.4200,1000.3041,8.6225,4.3208,1.7759,1590567188,N
69,2223589,8.6668,4.2497,1.9860,-1.4000,0.4200,0.3500,1000.3043,8.6255,4.2954,1.8223,1590567188,N
69,2221041,8.7769,4.2209,1.8401,1.4000,-0.0700,-0.3500,1000.3041,8.6339,4.2803,1.8182,1590567188,N
69,2219499,8.6740,4.3214,1.7228,0.4900,-0.4200,-1.0500,1000.3046,8.6324,4.2931,1.7948,1590567188,N
69,2219391,8.7386,4.1707,1.6822,-2.5900,1.3300,1.0500,1000.3049,8.6520,4.2567,1.7870,1590567188,N
69,2220145,8.7673,4.3310,1.9262,-0.5600,1.0500,-0.0700,1000.3054,8.6423,4.2633,1.8179,1590567188,N
69,2221433,8.6907,4.1946,1.8903,-0.4200,-0.0700,0.2100,1000.3065,8.6494,4.2429,1.8317,1590567189,N
69,2223356,8.7123,4.3549,1.7659,1.7500,-0.2800,-0.8400,1000.3078,8.6407,4.2701,1.8096,1590567189,N
69,2225448,8.6716,4.3573,1.7300,2.2400,0.7000,-2.0300,1000.3090,8.6217,4.3151,1.7934,1590567189,N
69,2226177,8.6668,4.3358,1.8257,4.8300,-0.8400,-1.8200,1000.3094,8.6089,4.3459,1.7806,1590567189,N
69,2223855,8.6883,4.4913,1.6510,14.4900,-2.4500,-1.8900,1000.3100,8.5808,4.4346,1.6955,1590567189,N
69,2221749,8.7745,4.4794,1.3735,-0.9800,3.4300,0.7700,1000.3104,8.5806,4.4508,1.6536,1590567189,N
69,2220963,8.7171,4.4052,1.6750,-4.4100,3.6400,0.8400,1000.3110,8.5830,4.4317,1.6919,1590567189,N
70,2220799,8.5711,4.3765,1.7659,-2.8000,2.8700,0.4200,1000.3115,8.5768,4.4268,1.7353,1590567189,N
70,2221480,8.6764,4.5368,1.7994,-1.8900,1.1900,0.2800,1000.3116,8.5697,4.4325,1.7562,1590567189,N
69,2222471,8.7338,4.3023,1.6415,0.4900,1.1200,1.1200,1000.3115,8.5884,4.4038,1.7367,1590567189,N
70,2223925,8.6716,4.5272,1.7635,-2.3800,3.5700,1.1900,1000.3116,8.5725,4.4223,1.7683,1590567190,N
70,2224615,8.5831,4.3573,1.9813,-2.1700,3.5000,1.6800,1000.3119,8.5647,4.4084,1.8391,1590567190,N
70,2222058,8.7242,4.4339,1.9741,1.2600,1.4000,0.4900,1000.3118,8.5585,4.4096,1.8649,1590567190,N
70,2219289,8.6118,4.3478,2.0004,1.9600,-0.6300,-0.7000,1000.3130,8.5584,4.4030,1.8809,1590567190,N
70,2218434,8.8247,4.4985,1.6630,3.3600,-0.7700,-0.0700,1000.3140,8.5670,4.4141,1.8146,1590567190,N
70,2218741,8.6166,4.5081,1.7324,-2.8000,1.9600,0.5600,1000.3150,8.5620,4.4228,1.8170,1590567190,N
70,2219512,8.5543,4.3119,2.2014,-0.9100,0.9100,1.0500,1000.3153,8.5598,4.3920,1.9002,1590567190,N
70,2220683,8.6572,4.4076,1.9454,2.2400,-0.2800,-0.7000,1000.3160,8.5561,4.4003,1.8978,1590567190,N
70,2222280,8.6333,4.4459,1.7468,-0.0700,0.5600,0.2800,1000.3165,8.5594,4.4060,1.8694,1590567190,N
70,2223886,8.6501,4.4841,1.9023,-0.1400,0.9100,0.9800,1000.3162,8.5562,4.4089,1.8771,1590567190,N
70,2222386,8.7027,4.4435,1.9382,0.8400,0.7700,-0.1400,1000.3156,8.5523,4.4124,1.8866,1590567191,N
70,2219558,8.6764,4.3095,1.8975,-0.2100,0.7700,0.4200,1000.3152,8.5641,4.3870,1.8921,1590567191,N
70,2218319,8.6429,4.3645,2.0578,0.2100,0.4200,-0.2800,1000.3146,8.5605,4.3802,1.9241,1590567191,N
70,2218594,8.6548,4.4530,1.7898,1.7500,0.8400,-0.4200,1000.3141,8.5543,4.4047,1.8956,1590567191,N
70,2219454,8.6429,4.3956,1.9406,-1.0500,0.8400,0.2800,1000.3137,8.5565,4.3941,1.9101,1590567191,N
70,2220892,8.6453,4.2879,1.9358,-1.0500,0.7000,-0.0700,1000.3135,8.5662,4.3699,1.9220,1590567191,N
70,2222664,8.6620,4.3860,1.8832,0.4200,0.2100,-0.0700,1000.3134,8.5686,4.3698,1.9115,1590567191,N
70,2224455,8.6405,4.4028,1.9478,0.1400,0.7000,0.4900,1000.3140,8.5665,4.3705,1.9195,1590567191,N
71,2224430,8.6285,4.3860,1.9214,0.7000,-0.4900,-0.2100,1000.3145,8.5685,4.3697,1.9122,1590567191,N
70,2221142,8.6285,4.3047,1.8305,0.2800,-1.5400,-0.2100,1000.3150,8.5856,4.3483,1.8839,1590567191,N
71,2218756,8.6501,4.4889,1.8473,3.1500,-3.6400,-0.9800,1000.3152,8.5882,4.3627,1.8385,1590567192,N
70,2219078,8.6357,4.4100,1.7946,0.2800,-1.6800,-0.4900,1000.3159,8.5945,4.3601,1.8154,1590567192,N
71,2219588,8.7290,4.5153,1.6630,-0.1400,-1.6800,-0.6300,1000.3152,8.6003,4.3679,1.7684,1590567192,N
71,2220573,8.7075,4.4076,1.7659,-0.7000,0.5600,0.1400,1000.3154,8.6011,4.3657,1.7698,1590567192,N
71,2222125,8.6620,4.4387,1.7252,1.1200,0.8400,0.2800,1000.3155,8.5943,4.3828,1.7608,1590567192,N
71,2224663,8.6931,4.4411,1.7037,0.4200,0.8400,0.5600,1000.3158,8.5931,4.3893,1.7501,1590567192,N
71,2226519,8.6740,4.3143,1.7563,0.5600,0.7000,0.5600,1000.3160,8.6000,4.3746,1.7529,1590567192,N
71,2224913,8.6668,4.4243,1.7707,0.5600,0.5600,0.5600,1000.3163,8.5970,4.3797,1.7553,1590567192,N
71,2223114,8.6285,4.4124,1.7515,0.5600,0.2800,-0.2100,1000.3164,8.5925,4.3891,1.7538,1590567192,N
71,2223047,8.6644,4.4363,1.7707,-0.0700,0.4200,0.4900,1000.3163,8.5916,4.3897,1.7567,1590567192,N
71,2223855,8.6405,4.4913,1.6822,-0.0700,0.9100,0.4200,1000.3168,8.5852,4.4066,1.7456,1590567193,N
71,2225133,8.6405,4.4554,1.8042,0.4200,0.5600,0.2100,1000.3181,8.5792,4.4138,1.7569,1590567193,N
71,2226645,8.6333,4.3956,1.7922,0.2100,0.5600,0.2100,1000.3187,8.5795,4.4097,1.7656,1590567193,N
71,2228117,8.6955,4.4506,1.7204,-0.1400,0.3500,0.5600,1000.3192,8.5838,4.4055,1.7549,1590567193,N
71,2228807,8.6979,4.5176,1.6463,-2.2400,0.9800,-0.3500,1000.3193,8.5814,4.4152,1.7425,1590567193,N
71,2227265,8.6620,4.4602,1.8329,1.1200,0.7000,-0.0700,1000.3187,8.5725,4.4261,1.7586,1590567193,N
71,2224414,8.6524,4.4818,1.7492,0.9100,0.5600,-0.0700,1000.3177,8.5669,4.4383,1.7550,1590567193,N
71,2223351,8.6524,4.4865,1.7539,0.7000,1.1200,0.2100,1000.3163,8.5605,4.4498,1.7572,1590567193,N
71,2223789,8.6716,4.4578,1.7204,-0.1400,1.1900,0.3500,1000.3151,8.5615,4.4487,1.7551,1590567193,N
71,2224933,8.6620,4.4124,1.7874,-0.2800,1.1200,0.6300,1000.3142,8.5653,4.4366,1.7670,1590567193,N
71,2226303,8.6429,4.4243,1.7683,0.2100,0.4900,0.0700,1000.3137,8.5672,4.4327,1.7679,1590567194,N
71,2228045,8.6668,4.4578,1.7994,-0.2100,0.2800,0.2100,1000.3131,8.5687,4.4277,1.7728,1590567194,N
71,2230011,8.6883,4.3669,1.8497,-0.4200,0.7000,0.4200,1000.3129,8.5757,4.4070,1.7905,1590567194,N
72,2231254,8.6812,4.3597,1.7803,-1.1200,0.2800,0.4200,1000.3129,8.5871,4.3846,1.7907,1590567194,N
71,2228253,8.7099,4.5631,1.6319,0.2800,0.2100,-0.4900,1000.3122,8.5801,4.4126,1.7550,1590567194,N
71,2224638,8.6477,4.4172,1.9382,-2.2400,0.2800,-0.2800,1000.3120,8.5789,4.3983,1.7964,1590567194,N
71,2223328,8.6788,4.3573,1.8377,0.1400,0.2800,-0.7700,1000.3120,8.5804,4.3921,1.8044,1590567194,N
72,2223397,8.6668,4.5631,1.8185,0.0700,0.9800,-0.7700,1000.3123,8.5621,4.4257,1.8094,1590567194,N
71,2224473,8.6812,4.5009,1.8401,0.8400,0.4900,-0.4200,1000.3121,8.5548,4.4388,1.8118,1590567194,N
71,2226244,8.6931,4.4076,1.7898,0.3500,0.5600,0.3500,1000.3110,8.5622,4.4266,1.8064,1590567194,N
71,2228182,8.6237,4.4578,1.7994,0.4200,0.6300,0.1400,1000.3107,8.5593,4.4326,1.8058,1590567195,N
72,2230133,8.7051,4.4937,1.8257,0.7000,0.4900,0.2800,1000.3116,8.5580,4.4354,1.8052,1590567195,N
71,2229216,8.6764,4.4818,1.8329,0.1400,0.5600,0.0700,1000.3117,8.5561,4.4373,1.8095,1590567195,N
72,2226295,8.6620,4.4004,1.8138,-0.0700,0.7700,-0.1400,1000.3117,8.5593,4.4295,1.8135,1590567195,N
71,2224462,8.6501,4.4315,1.7827,-0.0700,0.9800,0.2800,1000.3110,8.5605,4.4280,1.8115,1590567195,N
72,2224505,8.7147,4.3908,1.7994,0.4900,0.2800,-0.0700,1000.3097,8.5682,4.4154,1.8057,1590567195,N
72,2225026,8.6237,4.4363,1.8090,0.1400,0.6300,-0.0700,1000.3080,8.5651,4.4202,1.8084,1590567195,N
71,2225905,8.6429,4.3908,1.7922,-0.0700,0.7000,0.1400,1000.3068,8.5686,4.4135,1.8084,1590567195,N
71,2227213,8.7218,4.4746,1.8473,0.0700,0.5600,0.3500,1000.3058,8.5682,4.4123,1.8134,1590567195,N
72,2228904,8.6548,4.4818,1.7779,0.5600,0.9800,0.4200,1000.3054,8.5634,4.4239,1.8076,1590567195,N
72,2229406,8.6859,4.3334,1.8305,-0.7000,0.8400,0.5600,1000.3052,8.5749,4.3977,1.8171,1590567196,N
71,2226428,8.6883,4.4195,1.8688,-0.0700,0.7700,0.1400,1000.3051,8.5735,4.3956,1.8285,1590567196,N
72,2223430,8.6524,4.4124,1.7683,-0.2800,0.4200,0.0700,1000.3049,8.5764,4.3944,1.8179,1590567196,N
71,2222578,8.7362,4.3765,1.8162,-0.4900,1.0500,0.4900,1000.3052,8.5827,4.3807,1.8211,1590567196,N
72,2222670,8.6668,4.4339,1.8903,-0.1400,1.1200,0.3500,1000.3052,8.5762,4.3862,1.8388,1590567196,N
71,2223464,8.6692,4.4506,1.8640,0.4900,0.1400,0.3500,1000.3046,8.5745,4.3894,1.8387,1590567196,N
72,2224779,8.6357,4.4124,1.8449,0.1400,0.4900,0.0700,1000.3047,8.5729,4.3919,1.8406,1590567196,N
71,2226407,8.6357,4.3789,1.8760,-0.3500,0.4200,0.1400,1000.3054,8.5748,4.3845,1.8494,1590567196,N
72,2228344,8.6309,4.4435,1.8640,0.1400,0.6300,0.4200,1000.3062,8.5706,4.3912,1.8530,1590567196,N
71,2227552,8.6620,4.4267,1.8401,0.3500,0.4200,-0.1400,1000.3070,8.5690,4.3958,1.8492,1590567196,N
72,2224449,8.6189,4.3956,1.7994,0.2800,0.3500,-0.1400,1000.3082,8.5700,4.3978,1.8399,1590567197,N
71,2222438,8.6907,4.4004,1.8305,0.5600,0.4900,-0.0700,1000.3089,8.5718,4.3959,1.8362,1590567197,N
72,2222624,8.7003,4.4172,1.8760,0.7700,0.2800,-0.1400,1000.3095,8.5713,4.3954,1.8393,1590567197,N
71,2223070,8.6524,4.3741,1.7874,0.2100,0.2800,0.1400,1000.3101,8.5771,4.3886,1.8283,1590567197,N
71,2223972,8.6070,4.4315,1.7874,0.2800,0.3500,0.0700,1000.3101,8.5744,4.3973,1.8204,1590567197,N
71,2225273,8.6285,4.4243,1.8162,0.1400,0.3500,0.0700,1000.3098,8.5731,4.4001,1.8195,1590567197,N
72,2226919,8.6548,4.4913,1.7707,0.4900,0.9100,0.3500,1000.3088,8.5671,4.4155,1.8108,1590567197,N
71,2226961,8.6883,4.3262,1.7922,0.3500,0.2800,-0.2100,1000.3077,8.5773,4.3975,1.8062,1590567197,N
71,2223705,8.6309,4.3908,1.8066,0.0700,0.7000,0.2100,1000.3070,8.5774,4.3961,1.8093,1590567197,N
71,2220778,8.6548,4.3525,1.7803,0.0700,0.7000,0.0700,1000.3068,8.5817,4.3886,1.8067,1590567197,N
71,2219908,8.6883,4.4195,1.7803,-0.1400,0.0700,0.1400,1000.3066,8.5856,4.3845,1.7985,1590567198,N
71,2220124,8.7003,4.4411,1.8401,-0.2800,0.5600,0.2100,1000.3064,8.5836,4.3850,1.8064,1590567198,N
71,2220848,8.6788,4.4124,1.8544,-0.2100,0.5600,0.2100,1000.3064,8.5828,4.3826,1.8165,1590567198,N
71,2221821,8.6620,4.4483,1.8616,-0.2100,0.7700,0.2100,1000.3061,8.5771,4.3891,1.8274,1590567198,N
71,2223201,8.6357,4.4411,1.8592,-0.0700,0.6300,0.1400,1000.3065,8.5722,4.3954,1.8353,1590567198,N
71,2224707,8.6142,4.4411,1.8592,0.2100,0.2800,0.7700,1000.3066,8.5713,4.3960,1.8383,1590567198,N
71,2222645,8.6213,4.4052,1.8401,0.4200,0.5600,0.1400,1000.3063,8.5697,4.3985,1.8395,1590567198,N
71,2219325,8.6836,4.4148,1.7994,0.1400,0.4200,0.1400,1000.3063,8.5731,4.3957,1.8304,1590567198,N
71,2217835,8.6166,4.4794,1.9095,0.7700,0.4900,0.0700,1000.3066,8.5623,4.4110,1.8439,1590567198,N
71,2217928,8.6261,4.4339,1.8114,0.3500,0.9100,0.0700,1000.3074,8.5594,4.4181,1.8407,1590567198,N
71,2218342,8.6046,4.4195,1.9262,0.2100,0.7000,0.0700,1000.3087,8.5549,4.4187,1.8599,1590567199,N
71,2218745,8.6477,4.3525,1.7946,-0.2800,0.2100,0.0700,1000.3103,8.5662,4.4018,1.8477,1590567199,N
71,2219225,8.6381,4.4339,1.8808,-0.5600,0.4200,0.2100,1000.3111,8.5658,4.3994,1.8555,1590567199,N
71,2220375,8.6883,4.3932,1.8951,-0.4900,1.0500,0.3500,1000.3118,8.5677,4.3906,1.8677,1590567199,N
71,2220520,8.6261,4.2927,1.8592,0.1400,0.5600,-0.3500,1000.3123,8.5737,4.3778,1.8699,1590567199,N
71,2217954,8.6357,4.4339,1.8401,0.7000,0.3500,-0.1400,1000.3137,8.5695,4.3894,1.8619,1590567199,N
71,2216114,8.6524,4.3932,1.8640,0.2800,0.4900,0.1400,1000.3141,8.5706,4.3873,1.8621,1590567199,N
71,2216566,8.5998,4.3908,1.9143,-0.0700,0.2100,0.3500,1000.3138,8.5705,4.3830,1.8724,1590567199,N
71,2217520,8.6596,4.4100,1.8425,0.1400,0.4900,0.2100,1000.3138,8.5716,4.3835,1.8661,1590567199,N
71,2219099,8.6309,4.4770,1.8257,0.4200,0.5600,-0.0700,1000.3145,8.5644,4.4010,1.8578,1590567199,N
71,2220732,8.6237,4.4028,1.8736,0.3500,0.2100,-0.3500,1000.3143,8.5633,4.4023,1.8598,1590567200,N
71,2222570,8.6189,4.4961,1.8497,0.4200,0.6300,0.0700,1000.3139,8.5552,4.4191,1.8578,1590567200,N
71,2224549,8.7290,4.3813,1.8377,-0.1400,0.2800,0.5600,1000.3138,8.5681,4.3969,1.8507,1590567200,N
71,2223351,8.6405,4.4818,1.8257,0.6300,0.5600,0.5600,1000.3134,8.5640,4.4079,1.8437,1590567200,N
71,2220133,8.6501,4.4530,1.8305,-0.4200,0.7700,0.0700,1000.3132,8.5619,4.4116,1.8443,1590567200,N
71,2218421,8.6309,4.4554,1.8114,0.2100,0.9800,0.0700,1000.3127,8.5575,4.4214,1.8414,1590567200,N
71,2218271,8.6907,4.4172,1.8233,0.1400,0.4200,-0.0700,1000.3121,8.5619,4.4150,1.8364,1590567200,N
71,2219045,8.5878,4.3884,1.7779,-0.0700,0.4900,-0.0700,1000.3116,8.5643,4.4136,1.8285,1590567200,N
71,2220138,8.6764,4.4004,1.8520,-0.0700,0.5600,0.1400,1000.3114,8.5676,4.4050,1.8337,1590567200,N
71,2221686,8.6046,4.4148,1.8999,0.2100,0.4900,0.0700,1000.3108,8.5638,4.4065,1.8479,1590567200,N
71,2223420,8.6501,4.4554,1.8281,0.4200,1.1200,0.2100,1000.3111,8.5588,4.4164,1.8471,1590567201,N
71,2224304,8.6453,4.3549,1.8760,-0.4200,0.3500,0.2100,1000.3111,8.5667,4.3981,1.8543,1590567201,N
71,2221346,8.6740,4.4698,1.7827,0.3500,0.8400,0.1400,1000.3113,8.5639,4.4091,1.8409,1590567201,N
71,2218390,8.7003,4.4291,1.8808,0.3500,0.4200,0.1400,1000.3121,8.5653,4.4046,1.8456,1590567201,N
71,2217900,8.6716,4.3765,1.8688,0.2100,0.9100,0.0700,1000.3124,8.5668,4.3984,1.8530,1590567201,N
71,2218315,8.6285,4.3669,1.8951,-0.3500,0.8400,0.2100,1000.3124,8.5680,4.3904,1.8663,1590567201,N
71,2219351,8.6261,4.4602,1.8233,0.6300,0.2800,-0.3500,1000.3122,8.5626,4.4056,1.8557,1590567201,N
71,2220922,8.6333,4.3884,1.8640,0.1400,0.5600,-0.0700,1000.3118,8.5635,4.4024,1.8590,1590567201,N
71,2222849,8.6213,4.3813,1.9717,0.2800,0.2800,-0.2100,1000.3120,8.5614,4.3974,1.8805,1590567201,N
71,2224781,8.6285,4.4889,1.8018,0.5600,0.4200,0.1400,1000.3121,8.5573,4.4127,1.8629,1590567201,N
71,2223982,8.6548,4.4554,1.8999,0.5600,0.0700,-0.3500,1000.3122,8.5545,4.4172,1.8654,1590567202,N
71,2220646,8.6524,4.4291,1.9214,1.2600,-0.3500,-0.2100,1000.3122,8.5550,4.4156,1.8668,1590567202,N
71,2218704,8.5998,4.4937,1.7109,1.1900,0.1400,0.1400,1000.3115,8.5536,4.4330,1.8315,1590567202,N
71,2218475,8.6644,4.5344,1.6199,1.4700,0.6300,0.7000,1000.3109,8.5541,4.4509,1.7853,1590567202,N
71,2219133,8.7410,4.3980,1.7109,-2.9400,2.1700,1.2600,1000.3101,8.5688,4.4212,1.7885,1590567202,N
71,2220586,8.6501,4.2353,1.9645,-4.1300,2.1700,0.7700,1000.3095,8.5818,4.3707,1.8493,1590567202,N
71,2222115,8.3175,4.5296,2.3665,3.1500,-0.2100,-0.1400,1000.3091,8.5323,4.4264,1.9435,1590567202,N
71,2223658,8.8008,4.3167,1.5147,5.5300,-0.2800,-0.2800,1000.3097,8.5557,4.4269,1.8365,1590567202,N
71,2223384,8.6979,4.4626,1.5625,-0.9800,-0.2800,0.4900,1000.3094,8.5733,4.4165,1.7788,1590567202,N
71,2220204,8.6692,4.4674,1.7970,-2.4500,2.0300,-0.2800,1000.3090,8.5660,4.4220,1.8002,1590567202,N
71,2217858,8.5496,4.4578,1.9908,-3.1500,2.3800,1.1200,1000.3087,8.5545,4.4189,1.8612,1590567203,N
70,2217615,8.7434,4.2257,1.9214,2.5900,2.3800,-0.2100,1000.3091,8.5587,4.4027,1.8803,1590567203,N
71,2217909,8.6094,4.4889,1.8473,-1.6100,1.5400,-0.3500,1000.3094,8.5489,4.4190,1.8868,1590567203,N
70,2218894,8.7458,4.2832,1.8688,-1.9600,1.0500,0.8400,1000.3097,8.5711,4.3737,1.8914,1590567203,N
71,2220321,8.5424,4.2832,2.0770,-3.0800,0.9800,0.1400,1000.3098,8.5717,4.3488,1.9451,1590567203,N
70,2222074,8.6070,4.3884,1.9908,0.3500,1.5400,0.9800,1000.3093,8.5645,4.3560,1.9608,1590567203,N
71,2222975,8.7027,4.1994,2.0841,-0.1400,0.0700,0.4900,1000.3090,8.5812,4.3131,1.9827,1590567203,N
70,2219507,8.8941,4.3310,2.1368,-2.1700,-2.0300,0.3500,1000.3095,8.6039,4.2636,1.9912,1590567203,N
71,2215997,8.7075,4.5703,1.4237,5.3200,-1.7500,-1.7500,1000.3100,8.5977,4.3395,1.8487,1590567203,N
70,2214713,8.7362,4.5679,1.7492,-2.3800,2.8000,2.3100,1000.3102,8.5895,4.3570,1.8458,1590567203,N
71,2214674,8.6309,4.1228,2.1966,-2.4500,1.6100,2.3100,1000.3097,8.6044,4.2900,1.9314,1590567204,N
70,2215547,8.5400,4.5583,2.0339,0.9800,1.9600,-0.4900,1000.3091,8.5635,4.3580,1.9607,1590567204,N
70,2216954,8.6333,4.4267,2.1009,-0.1400,1.9600,1.1200,1000.3083,8.5519,4.3646,1.9966,1590567204,N
70,2218740,8.7266,4.3119,1.8879,1.9600,-0.3500,-0.4900,1000.3080,8.5640,4.3558,1.9634,1590567204,N
71,2220328,8.7003,4.5368,1.7563,0.4200,0.2800,-0.0700,1000.3077,8.5609,4.3824,1.9173,1590567204,N
70,2218215,8.6261,4.3860,1.9932,-0.9100,1.0500,1.1200,1000.3077,8.5623,4.3705,1.9382,1590567204,N
70,2215097,8.6453,4.3621,2.0291,-0.9100,-0.5600,-0.2800,1000.3072,8.5670,4.3551,1.9517,1590567204,N
70,2214212,8.6166,4.4411,1.9525,-1.5400,-0.8400,-0.3500,1000.3071,8.5681,4.3549,1.9474,1590567204,N
71,2214816,8.6046,4.5129,1.8353,0.9800,-0.0700,-0.4900,1000.3068,8.5582,4.3868,1.9194,1590567204,N
71,2215887,8.5783,4.4124,1.9956,-0.2800,1.3300,0.7000,1000.3071,8.5512,4.3904,1.9423,1590567204,N
70,2217014,8.6644,4.2425,2.0195,1.8900,-0.7700,-0.4900,1000.3076,8.5642,4.3634,1.9457,1590567205,N
70,2218601,8.6788,4.5703,1.6893,1.6800,0.4200,-0.2800,1000.3081,8.5560,4.4046,1.8881,1590567205,N
71,2219596,8.6501,4.4219,1.8544,1.1200,0.7700,0.9800,1000.3080,8.5583,4.4038,1.8795,1590567205,N
71,2216397,8.7362,4.4339,1.8449,2.7300,0.2100,1.0500,1000.3076,8.5637,4.4020,1.8592,1590567205,N
71,2212917,8.6094,4.2879,2.0052,0.0700,-0.0700,0.8400,1000.3080,8.5741,4.3702,1.8860,1590567205,N
71,2211487,8.6955,4.3717,1.8736,0.5600,-0.0700,0.4900,1000.3079,8.5815,4.3596,1.8769,1590567205,N
70,2210793,8.7697,4.3573,1.8042,-0.9100,1.6800,0.6300,1000.3073,8.5882,4.3490,1.8708,1590567205,N
71,2209310,8.6094,4.3047,1.8736,2.7300,1.8900,-1.7500,1000.3069,8.5703,4.3804,1.8796,1590567205,N
71,2208473,8.7218,4.4794,1.9310,0.9800,1.4000,-0.6300,1000.3062,8.5562,4.4030,1.8907,1590567205,N
71,2208845,8.6501,4.3693,1.9143,-0.6300,0.6300,-0.0700,1000.3057,8.5602,4.3917,1.8991,1590567205,N
71,2209564,8.6237,4.4363,1.9502,-2.8700,2.8700,0.9800,1000.3049,8.5526,4.3915,1.9334,1590567206,N
71,2206506,8.6189,4.3645,1.9717,2.1000,1.9600,0.4900,1000.3048,8.5449,4.4007,1.9465,1590567206,N
71,2203620,8.6453,4.4148,1.9454,1.2600,1.3300,-0.2100,1000.3043,8.5386,4.4119,1.9488,1590567206,N
71,2203131,8.6333,4.3884,1.8999,-1.0500,2.1000,0.6300,1000.3029,8.5404,4.4062,1.9539,1590567206,N
71,2204290,8.6453,4.3860,2.0076,-1.8200,1.9600,0.1400,1000.3021,8.5391,4.3971,1.9799,1590567206,N
71,2205735,8.6477,4.3765,2.0674,-0.7000,0.9800,-0.2100,1000.3016,8.5383,4.3883,2.0024,1590567206,N
71,2207505,8.6381,4.3884,2.0195,0.4200,0.1400,-0.1400,1000.3014,8.5405,4.3842,2.0021,1590567206,N
71,2209731,8.6046,4.4387,1.9669,0.7000,0.9100,0.2800,1000.3013,8.5359,4.3957,1.9964,1590567206,N
71,2211355,8.6501,4.3621,2.0363,0.4900,0.2100,0.4200,1000.3018,8.5426,4.3810,2.0002,1590567206,N
71,2208910,8.5759,4.3956,2.0674,0.4200,0.2800,-0.0700,1000.3030,8.5383,4.3837,2.0124,1590567206,N
71,2206324,8.6524,4.3789,1.9789,0.2100,-0.2100,-0.1400,1000.3046,8.5454,4.3755,2.0002,1590567207,N
71,2206101,8.6477,4.3741,1.9908,-1.3300,-0.1400,0.1400,1000.3062,8.5543,4.3595,1.9974,1590567207,N
71,2207113,8.6285,4.4028,2.0267,-0.4200,-0.1400,-0.4900,1000.3067,8.5527,4.3611,2.0004,1590567207,N
71,2208296,8.5974,4.4172,1.9454,0.2800,0.5600,-0.3500,1000.3060,8.5477,4.3754,1.9910,1590567207,N
71,2209813,8.6094,4.3932,2.0483,0.3500,0.2800,0.0700,1000.3053,8.5455,4.3753,2.0003,1590567207,N
71,2211737,8.6740,4.4626,1.8951,0.5600,0.4200,0.0700,1000.3044,8.5457,4.3861,1.9756,1590567207,N
71,2213432,8.6836,4.3334,2.0076,-0.8400,0.2100,0.2100,1000.3032,8.5565,4.3623,1.9815,1590567207,N
72,2211029,8.5878,4.4004,1.9717,0.0700,0.6300,0.2800,1000.3024,8.5533,4.3685,1.9819,1590567207,N
71,2208339,8.6142,4.3525,2.0315,-0.1400,0.3500,0.0700,1000.3029,8.5545,4.3614,1.9923,1590567207,N
71,2207935,8.6548,4.4243,2.0674,-0.1400,0.3500,-0.0700,1000.3031,8.5500,4.3645,2.0049,1590567207,N
71,2208552,8.5974,4.4028,1.9573,-0.6300,0.7000,0.2800,1000.3032,8.5496,4.3674,1.9999,1590567208,N
72,2209739,8.6453,4.4172,2.0315,-0.5600,0.5600,0.3500,1000.3035,8.5489,4.3658,2.0068,1590567208,N
71,2211182,8.6740,4.4315,1.9645,0.2800,0.5600,0.4200,1000.3042,8.5497,4.3691,1.9959,1590567208,N
72,2213030,8.6213,4.4148,1.9908,-0.1400,0.6300,0.3500,1000.3048,8.5483,4.3717,1.9961,1590567208,N
72,2214578,8.6213,4.4052,2.0052,-0.2800,0.2100,0.4900,1000.3047,8.5504,4.3675,1.9963,1590567208,N
72,2212523,8.6453,4.4100,1.9741,0.2800,0.4900,0.2800,1000.3049,8.5507,4.3698,1.9904,1590567208,N
72,2209633,8.6644,4.3813,2.0459,-0.2800,0.3500,0.1400,1000.3060,8.5526,4.3617,1.9999,1590567208,N
72,2208847,8.6692,4.3693,2.0578,0.0700,0.7700,0.2100,1000.3056,8.5524,4.3565,2.0117,1590567208,N
72,2209615,8.6261,4.3597,2.0483,-0.0700,0.6300,-0.4200,1000.3047,8.5496,4.3577,2.0213,1590567208,N
72,2210619,8.6429,4.4435,1.9836,0.6300,0.3500,-0.2800,1000.3044,8.5447,4.3723,2.0104,1590567208,N
72,2212246,8.6381,4.4411,1.9980,-0.3500,0.4900,0.2800,1000.3037,8.5436,4.3757,2.0076,1590567209,N
72,2214129,8.6429,4.4267,2.0028,0.1400,0.8400,0.4900,1000.3027,8.5422,4.3786,2.0073,1590567209,N
72,2216347,8.6022,4.3789,2.1009,-0.2100,0.7700,0.6300,1000.3015,8.5410,4.3713,2.0283,1590567209,N
72,2215326,8.6237,4.4100,2.1224,0.3500,0.4200,-0.1400,1000.3007,8.5353,4.3747,2.0446,1590567209,N
72,2212605,8.6022,4.4291,2.0554,0.4900,0.3500,-0.1400,1000.2999,8.5308,4.3835,2.0446,1590567209,N
72,2211448,8.6381,4.3717,2.0076,0.4900,0.2800,0.2800,1000.2991,8.5372,4.3760,2.0341,1590567209,N
72,2212256,8.6189,4.4195,1.9956,0.4900,0.4200,-0.4900,1000.2978,8.5340,4.3862,2.0253,1590567209,N
73,2213256,8.6261,4.4076,2.0363,-0.0700,0.4200,0.1400,1000.2969,8.5350,4.3836,2.0268,1590567209,N
72,2214371,8.5854,4.4052,2.0028,0.5600,0.2800,-0.2100,1000.2965,8.5334,4.3896,2.0207,1590567209,N
72,2216104,8.6620,4.4243,1.9836,0.1400,0.5600,0.0700,1000.2968,8.5354,4.3897,2.0120,1590567209,N
72,2217973,8.6620,4.3095,2.0315,-0.4200,0.6300,0.4900,1000.2968,8.5466,4.3650,2.0179,1590567210,N
73,2217271,8.6836,4.3430,2.0698,0.5600,0.5600,-0.3500,1000.2967,8.5478,4.3588,2.0262,1590567210,N
72,2214210,8.6070,4.4219,2.0004,0.1400,0.6300,0.0700,1000.2965,8.5436,4.3690,2.0221,1590567210,N
73,2212701,8.6357,4.3741,2.0243,0.1400,0.9800,0.1400,1000.2968,8.5430,4.3686,2.0256,1590567210,N
73,2213143,8.6501,4.4650,1.9573,0.5600,0.6300,-0.0700,1000.2979,8.5386,4.3843,2.0102,1590567210,N
73,2213962,8.6189,4.3167,2.0411,-0.2800,0.5600,0.2100,1000.2988,8.5452,4.3672,2.0190,1590567210,N
73,2215190,8.5926,4.3693,2.0554,0.5600,0.4200,0.1400,1000.2993,8.5437,4.3674,2.0255,1590567210,N
73,2216719,8.6213,4.3813,2.0076,0.4200,0.4900,0.2100,1000.3002,8.5447,4.3674,2.0211,1590567210,N
73,2218636,8.6285,4.4052,2.0052,-0.2800,0.9800,0.4900,1000.3011,8.5439,4.3686,2.0216,1590567210,N
73,2218711,8.6979,4.4028,2.0052,0.7700,0.4200,-0.2100,1000.3022,8.5449,4.3705,2.0136,1590567210,N
73,2215829,8.7051,4.3645,1.9454,-0.1400,0.6300,0.1400,1000.3022,8.5529,4.3611,1.9999,1590567211,N
73,2213673,8.6189,4.4219,1.9860,0.1400,1.0500,0.0700,1000.3024,8.5466,4.3730,2.0009,1590567211,N
73,2213754,8.6740,4.3765,2.0052,-0.0700,0.7700,0.0700,1000.3028,8.5487,4.3679,2.0028,1590567211,N
73,2214566,8.6836,4.2975,2.0028,0.4900,0.2800,0.1400,1000.3044,8.5590,4.3492,1.9999,1590567211,N
73,2215504,8.6237,4.4028,2.0339,0.3500,0.4200,-0.2100,1000.3057,8.5531,4.3581,2.0054,1590567211,N
73,2217160,8.5878,4.3956,2.0506,-0.0700,0.5600,0.2100,1000.3066,8.5485,4.3623,2.0160,1590567211,N
73,2218971,8.6285,4.3645,2.0004,0.3500,0.4900,0.4900,1000.3069,8.5517,4.3577,2.0121,1590567211,N
73,2220570,8.6836,4.3167,2.0171,-0.2100,0.4900,0.2800,1000.3074,8.5601,4.3410,2.0129,1590567211,N
73,2218267,8.6213,4.4004,1.9813,0.2800,0.4900,0.2100,1000.3073,8.5575,4.3492,2.0061,1590567211,N
73,2215583,8.6405,4.3621,2.1009,-0.0700,0.1400,0.0700,1000.3083,8.5568,4.3431,2.0220,1590567211,N
73,2214931,8.6716,4.4243,2.0794,0.4900,0.1400,0.0700,1000.3083,8.5528,4.3488,2.0268,1590567212,N
74,2215396,8.6189,4.4602,1.9908,0.0700,0.3500,0.0700,1000.3081,8.5471,4.3641,2.0179,1590567212,N
73,2215962,8.6237,4.3789,2.0698,-0.1400,0.7000,0.2100,1000.3078,8.5454,4.3618,2.0299,1590567212,N
73,2217092,8.6118,4.4267,2.0339,0.4900,0.1400,0.2100,1000.3061,8.5428,4.3685,2.0265,1590567212,N
73,2218547,8.6261,4.4267,1.9573,0.0700,0.4200,0.3500,1000.3054,8.5440,4.3730,2.0116,1590567212,N
74,2220042,8.6572,4.3597,2.0698,-0.2100,0.2100,0.4200,1000.3052,8.5495,4.3581,2.0205,1590567212,N
73,2218128,8.6429,4.4195,2.0219,0.2800,0.7700,0.4200,1000.3048,8.5467,4.3637,2.0205,1590567212,N
73,2214893,8.5711,4.4291,2.0722,-0.2800,0.7000,0.1400,1000.3053,8.5385,4.3735,2.0339,1590567212,N
73,2213363,8.5615,4.3932,2.0698,0.2800,0.7700,0.2100,1000.3056,8.5334,4.3788,2.0440,1590567212,N
74,2213549,8.5807,4.4387,1.9884,0.2800,0.7000,0.0700,1000.3057,8.5293,4.3910,2.0348,1590567212,N
73,2214081,8.6668,4.4483,2.0243,0.2100,0.4200,0.1400,1000.3054,8.5300,4.3923,2.0291,1590567213,N
73,2215131,8.6596,4.3980,2.0004,0.0700,0.7000,0.0700,1000.3049,8.5334,4.3882,2.0237,1590567213,N
73,2216454,8.6189,4.4339,2.0363,0.4900,0.4200,0.1400,1000.3048,8.5312,4.3925,2.0236,1590567213,N
74,2218106,8.5663,4.4506,1.9813,-0.0700,0.9100,0.3500,1000.3051,8.5269,4.4027,2.0195,1590567213,N
73,2218030,8.5902,4.3525,2.0411,0.7700,0.4900,-0.1400,1000.3053,8.5288,4.3971,2.0238,1590567213,N
73,2214777,8.5902,4.4578,1.9884,-0.0700,0.7700,-0.0700,1000.3055,8.5242,4.4079,2.0196,1590567213,N
73,2212227,8.6453,4.3502,2.0530,-0.3500,1.3300,-0.0700,1000.3055,8.5270,4.3962,2.0334,1590567213,N
74,2212024,8.6070,4.3597,2.0243,-0.2800,0.7000,-0.0700,1000.3055,8.5306,4.3881,2.0354,1590567213,N
73,2212603,8.6070,4.3669,2.1176,0.2100,0.2100,-0.2100,1000.3054,8.5308,4.3811,2.0499,1590567213,N
73,2213556,8.5902,4.4483,2.0171,0.2100,0.3500,-0.0700,1000.3051,8.5272,4.3916,2.0423,1590567213,N
73,2214978,8.6166,4.4076,2.0650,0.0700,0.4200,0.2100,1000.3051,8.5282,4.3881,2.0456,1590567214,N
74,2216696,8.6572,4.4028,2.0004,0.4200,0.4200,0.2100,1000.3052,8.5329,4.3844,2.0337,1590567214,N
73,2218299,8.6572,4.3358,2.0052,-0.2800,0.4200,0.2800,1000.3052,8.5432,4.3669,2.0282,1590567214,N
73,2216146,8.6261,4.4004,2.0794,0.2800,0.2800,0.1400,1000.3061,8.5415,4.3669,2.0354,1590567214,N
73,2213355,8.5926,4.4124,2.0913,0.1400,0.1400,0.0700,1000.3063,8.5379,4.3701,2.0438,1590567214,N
73,2212440,8.6596,4.3717,2.0363,0.5600,0.1400,0.0700,1000.3060,8.5425,4.3641,2.0373,1590567214,N
73,2212815,8.6692,4.4865,2.0435,0.5600,0.2800,0.1400,1000.3057,8.5372,4.3769,2.0320,1590567214,N
73,2213318,8.6285,4.4148,1.9956,0.0700,0.5600,0.1400,1000.3064,8.5376,4.3795,2.0248,1590567214,N
73,2214328,8.6261,4.4172,1.9932,0.4200,0.2100,0.2800,1000.3070,8.5395,4.3803,2.0149,1590567214,N
73,2215781,8.5639,4.4483,2.0219,0.2800,0.3500,0.1400,1000.3067,8.5335,4.3916,2.0157,1590567214,N
73,2217360,8.6118,4.4243,2.0435,0.0700,0.2100,0.3500,1000.3063,8.5341,4.3892,2.0184,1590567215,N
73,2215378,8.5831,4.4267,2.0124,0.3500,0.4900,0.1400,1000.3068,8.5313,4.3952,2.0172,1590567215,N
73,2212113,8.6142,4.4124,2.0506,-0.2800,0.4200,0.4200,1000.3073,8.5330,4.3890,2.0236,1590567215,N
73,2210739,8.6501,4.4148,2.0435,0.2800,0.3500,0.2100,1000.3074,8.5346,4.3856,2.0242,1590567215,N
73,2210974,8.6524,4.4195,2.0219,0.1400,0.5600,0.0700,1000.3074,8.5350,4.3857,2.0225,1590567215,N
73,2211700,8.5998,4.4387,2.0076,-0.2100,0.5600,0.3500,1000.3071,8.5335,4.3894,2.0205,1590567215,N
73,2212757,8.6142,4.4172,2.0411,-0.2800,0.7000,0.0700,1000.3072,8.5318,4.3899,2.0268,1590567215,N
73,2214208,8.6620,4.4435,2.0602,0.2100,0.4900,-0.1400,1000.3071,8.5293,4.3929,2.0306,1590567215,N
73,2215926,8.6453,4.4578,2.0267,0.2100,0.7000,0.3500,1000.3070,8.5276,4.3971,2.0286,1590567215,N
73,2215446,8.6333,4.4291,2.0363,0.9100,0.4900,-0.3500,1000.3065,8.5245,4.4040,2.0270,1590567215,N
73,2212416,8.6381,4.4674,1.9693,-0.2100,0.8400,-0.1400,1000.3057,8.5225,4.4120,2.0177,1590567216,N
73,2210263,8.5615,4.3837,2.0315,-0.2100,1.5400,0.3500,1000.3053,8.5202,4.4105,2.0307,1590567216,N
73,2210264,8.6333,4.4028,2.0530,0.3500,0.2100,-0.2100,1000.3055,8.5230,4.4046,2.0318,1590567216,N
73,2211057,8.6189,4.3765,1.9765,0.3500,0.1400,-0.4200,1000.3053,8.5286,4.3997,2.0189,1590567216,N
73,2212074,8.6213,4.3645,2.0937,-0.1400,0.6300,0.4900,1000.3056,8.5324,4.3849,2.0348,1590567216,N
73,2213656,8.6070,4.4315,2.0530,0.2100,0.2100,0.4900,1000.3060,8.5325,4.3847,2.0350,1590567216,N
73,2215580,8.6357,4.4937,1.9932,0.1400,0.7700,0.2100,1000.3064,8.5273,4.3988,2.0263,1590567216,N
73,2216456,8.6118,4.3430,2.0865,0.2100,0.3500,0.1400,1000.3072,8.5322,4.3842,2.0375,1590567216,N
73,2213891,8.6477,4.3932,2.0100,0.0700,0.6300,0.0700,1000.3074,8.5350,4.3811,2.0323,1590567216,N
73,2211329,8.6094,4.4052,2.0243,0.5600,0.2100,0.3500,1000.3079,8.5365,4.3806,2.0271,1590567216,N
73,2211092,8.6524,4.3837,2.0004,0.8400,-0.2100,0.3500,1000.3076,8.5439,4.3724,2.0135,1590567217,N
73,2211407,8.5926,4.4530,2.0028,0.0700,0.2800,0.0700,1000.3085,8.5392,4.3833,2.0100,1590567217,N
73,2212111,8.6237,4.3717,2.0650,-0.2800,0.7000,0.2800,1000.3087,8.5404,4.3749,2.0232,1590567217,N
73,2213321,8.5807,4.4028,1.9645,0.1400,0.5600,0.2800,1000.3099,8.5403,4.3795,2.0133,1590567217,N
73,2214868,8.6859,4.4698,1.9693,0.2800,0.6300,0.4200,1000.3105,8.5400,4.3856,2.0014,1590567217,N
73,2215936,8.5496,4.3502,2.0770,-0.5600,0.4900,0.2100,1000.3112,8.5399,4.3767,2.0210,1590567217,N
73,2213208,8.6620,4.3502,1.9932,-0.1400,0.7700,0.3500,1000.3109,8.5466,4.3652,2.0174,1590567217,N
73,2210259,8.6692,4.3813,2.0291,-0.3500,0.5600,0.4200,1000.3102,8.5504,4.3569,2.0195,1590567217,N
73,2209528,8.5783,4.3956,2.0602,-0.0700,0.2100,0.2800,1000.3098,8.5476,4.3591,2.0269,1590567217,N
73,2209831,8.6285,4.3837,2.0435,-0.0700,0.4900,0.2800,1000.3096,8.5478,4.3571,2.0301,1590567217,N
73,2210519,8.5759,4.4243,2.0602,-0.2100,0.7000,0.2100,1000.3088,8.5406,4.3670,2.0389,1590567218,N
73,2211675,8.6213,4.4363,2.0578,0.1400,0.6300,0.2800,1000.3080,8.5363,4.3740,2.0421,1590567218,N
73,2213146,8.6907,4.4052,2.0148,0.1400,0.5600,0.2100,1000.3066,8.5401,4.3703,2.0342,1590567218,N
73,2214792,8.6166,4.3621,2.0841,-0.6300,0.3500,0.6300,1000.3054,8.5446,4.3566,2.0446,1590567218,N
73,2213195,8.5902,4.4530,1.9717,0.2800,0.5600,0.2100,1000.3047,8.5396,4.3730,2.0303,1590567218,N
73,2209848,8.6309,4.4243,2.0459,-0.0700,0.5600,0.1400,1000.3039,8.5374,4.3761,2.0331,1590567218,N
73,2208415,8.6285,4.3789,2.0818,0.0700,1.1900,0.3500,1000.3032,8.5353,4.3738,2.0469,1590567218,N
73,2208739,8.6261,4.4363,2.0841,0.2800,0.3500,-0.1400,1000.3021,8.5307,4.3806,2.0514,1590567218,N
73,2209422,8.5878,4.4698,2.0267,0.6300,0.2800,-0.4900,1000.3011,8.5228,4.3993,2.0439,1590567218,N
73,2210794,8.5854,4.3884,2.0602,-0.4900,0.7000,0.0700,1000.3013,8.5238,4.3941,2.0513,1590567218,N
73,2212368,8.6357,4.4219,2.0004,0.4200,0.2800,0.1400,1000.3018,8.5273,4.3936,2.0377,1590567219,N
73,2214457,8.6548,4.4650,2.0243,-0.4200,0.9100,0.2100,1000.3026,8.5254,4.3976,2.0368,1590567219,N
73,2214554,8.6261,4.4100,2.0363,0.4900,0.5600,-0.1400,1000.3034,8.5251,4.3988,2.0357,1590567219,N
73,2211491,8.6740,4.3932,2.0722,0.4900,0.6300,-0.1400,1000.3038,8.5268,4.3931,2.0407,1590567219,N
73,2209404,8.6189,4.4076,2.0459,0.4900,0.4900,-0.1400,1000.3046,8.5261,4.3946,2.0404,1590567219,N
73,2209504,8.6596,4.3717,2.0339,0.5600,0.4900,-0.1400,1000.3049,8.5305,4.3876,2.0369,1590567219,N
73,2209939,8.5878,4.4076,2.0195,0.2800,0.2800,-0.1400,1000.3054,8.5299,4.3909,2.0326,1590567219,N
73,2210890,8.5783,4.3597,2.0267,0.0700,0.4900,-0.0700,1000.3051,8.5320,4.3863,2.0337,1590567219,N
73,2212251,8.5807,4.4267,1.9765,0.2100,0.5600,-0.0700,1000.3045,8.5297,4.3952,2.0238,1590567219,N
73,2213937,8.5950,4.4411,1.9286,0.0700,0.9800,0.2800,1000.3035,8.5288,4.4039,2.0090,1590567219,N
73,2214348,8.5878,4.3693,2.0052,0.2100,0.4900,-0.1400,1000.3022,8.5310,4.3991,2.0099,1590567220,N
73,2211158,8.6453,4.3908,2.0028,-0.1400,0.8400,0.2800,1000.3013,8.5346,4.3918,2.0108,1590567220,N
73,2208427,8.6596,4.3645,2.0387,-0.1400,0.7700,0.2800,1000.3014,8.5393,4.3794,2.0178,1590567220,N
73,2207884,8.6788,4.3980,2.0315,0.1400,0.4200,0.1400,1000.3007,8.5423,4.3737,2.0175,1590567220,N
73,2208339,8.6596,4.3454,2.0100,-0.0700,0.5600,0.3500,1000.3013,8.5492,4.3608,2.0163,1590567220,N
73,2209241,8.6094,4.4052,2.0076,0.1400,0.4200,0.2800,1000.3012,8.5478,4.3646,2.0139,1590567220,N
73,2210582,8.6429,4.3956,1.9980,0.1400,0.3500,0.2800,1000.3002,8.5497,4.3633,2.0087,1590567220,N
73,2212244,8.6429,4.4291,1.9717,0.2100,0.6300,0.2800,1000.2996,8.5480,4.3703,2.0008,1590567220,N
73,2213585,8.6285,4.3597,2.0195,-0.7700,0.2800,0.3500,1000.2991,8.5534,4.3576,2.0055,1590567220,N
73,2210979,8.5974,4.3932,2.0100,-0.7700,0.5600,0.2100,1000.2989,8.5519,4.3583,2.0101,1590567220,N
73,2207817,8.6166,4.3502,2.1129,-0.2100,0.4200,0.2100,1000.2993,8.5512,4.3502,2.0308,1590567221,N
73,2206738,8.6046,4.4722,2.0219,0.0700,0.4200,0.2100,1000.2999,8.5433,4.3670,2.0276,1590567221,N
73,2206988,8.6213,4.4124,2.0387,-0.7000,1.2600,0.6300,1000.3005,8.5407,4.3681,2.0363,1590567221,N
73,2207768,8.6285,4.4698,2.1153,0.0700,0.4900,-0.2100,1000.3000,8.5308,4.3811,2.0498,1590567221,N
73,2209037,8.6213,4.3406,1.9884,-0.0700,0.1400,-0.2800,1000.2991,8.5387,4.3717,2.0372,1590567221,N
72,2210631,8.6859,4.3884,2.0698,-0.4900,0.4200,0.2100,1000.2988,8.5428,4.3613,2.0419,1590567221,N
73,2212624,8.5615,4.4865,2.0985,-0.6300,0.4200,0.5600,1000.2986,8.5334,4.3742,2.0538,1590567221,N
72,2211763,8.6501,4.3837,1.9573,1.2600,-0.0700,-0.5600,1000.2982,8.5375,4.3784,2.0277,1590567221,N
73,2208822,8.5735,4.5081,2.0363,-1.1200,1.1200,0.8400,1000.2983,8.5288,4.3916,2.0359,1590567221,N
72,2207146,8.5663,4.2401,2.0770,-1.1900,1.1200,-0.2800,1000.2993,8.5362,4.3672,2.0572,1590567221,N
73,2207627,8.6501,4.3549,1.9238,0.2800,1.1200,-1.5400,1000.2993,8.5345,4.3799,2.0371,1590567222,N
72,2208801,8.5496,4.4841,2.1918,-1.3300,1.5400,-0.0700,1000.2995,8.5156,4.3969,2.0788,1590567222,N
73,2210134,8.5543,4.3047,2.1918,1.2600,-0.6300,-0.3500,1000.2994,8.5203,4.3811,2.0930,1590567222,N
73,2211598,8.5424,4.5248,2.0387,-0.2800,-0.2800,-0.0700,1000.3000,8.5139,4.4007,2.0781,1590567222,N
73,2212984,8.6070,4.3813,2.1679,-2.2400,-3.1500,-0.0700,1000.3009,8.5355,4.3595,2.0760,1590567222,N
73,2212261,8.5543,4.3382,2.0243,1.1200,-5.1100,-0.9100,1000.3010,8.5598,4.3350,2.0268,1590567222,N
73,2208438,8.7338,4.5272,1.2562,6.2300,1.5400,-1.0500,1000.3007,8.5568,4.4138,1.8629,1590567222,N
72,2205800,8.7721,4.8479,1.6654,-10.7100,8.0500,6.3000,1000.3010,8.5458,4.4222,1.8932,1590567222,N
73,2205199,8.4419,3.8309,3.2614,2.5900,-6.2300,-2.1700,1000.3009,8.5570,4.3002,2.1110,1590567222,N
73,2204843,8.7458,4.7976,1.3376,14.5600,-6.4400,-4.0600,1000.3002,8.5480,4.4291,1.8668,1590567222,N
73,2204815,8.9133,4.7498,1.0050,1.2600,-2.1700,0.1400,1000.2997,8.5769,4.4528,1.6669,1590567223,N
72,2205434,8.5783,4.3334,1.9597,-3.5700,3.0800,0.7700,1000.3000,8.5712,4.4293,1.7568,1590567223,N
73,2206790,8.6094,4.6038,1.8592,0.7700,0.6300,0.6300,1000.3010,8.5538,4.4560,1.7741,1590567223,N
73,2206834,8.6381,4.5655,1.7180,0.0700,-1.2600,-0.0700,1000.3016,8.5574,4.4586,1.7498,1590567223,N
72,2203387,8.6524,4.4674,1.6702,0.4200,-0.4900,-0.0700,1000.3022,8.5652,4.4527,1.7267,1590567223,N
72,2201218,8.6381,4.5033,1.6869,0.4200,0.3500,0.0700,1000.3027,8.5633,4.4599,1.7173,1590567223,N
73,2201222,8.5902,4.3908,1.6678,1.1200,0.7700,0.0700,1000.3034,8.5652,4.4589,1.7103,1590567223,N
73,2201965,8.6189,4.5464,1.6917,0.4200,0.9800,-0.3500,1000.3041,8.5535,4.4814,1.7099,1590567223,N
72,2203146,8.6979,4.5488,1.5912,-0.1400,1.1200,0.4200,1000.3041,8.5543,4.4877,1.6897,1590567223,N
72,2205213,8.6166,4.5248,1.6487,-2.7300,2.0300,0.4200,1000.3040,8.5519,4.4880,1.7011,1590567223,N
73,2208044,8.6261,4.5320,1.7204,-3.5000,2.6600,1.9600,1000.3044,8.5526,4.4761,1.7287,1590567224,N
73,2209676,8.6716,4.3860,1.7850,-3.5000,2.1000,1.3300,1000.3054,8.5653,4.4391,1.7609,1590567224,N
72,2207989,8.6237,4.4243,1.8473,-2.7300,2.1700,1.4000,1000.3055,8.5664,4.4222,1.7975,1590567224,N
73,2206784,8.6477,4.3837,2.0195,-1.4700,1.3300,0.6300,1000.3060,8.5649,4.4031,1.8509,1590567224,N
72,2207612,8.5950,4.3813,2.0148,-1.4700,0.4900,0.3500,1000.3065,8.5644,4.3879,1.8888,1590567224,N
73,2208747,8.5926,4.3884,1.8736,1.4000,0.1400,-0.1400,1000.3063,8.5623,4.3949,1.8822,1590567224,N
72,2209853,8.6764,4.3860,1.8951,0.2800,0.3500,-0.0700,1000.3060,8.5653,4.3887,1.8828,1590567224,N
72,2211472,8.6548,4.4100,1.9525,0.1400,0.7000,-0.0700,1000.3054,8.5614,4.3900,1.8975,1590567224,N
72,2213420,8.6237,4.4435,1.9836,0.5600,0.2800,0.1400,1000.3047,8.5555,4.3957,1.9111,1590567224,N
73,2212904,8.7123,4.4004,1.8951,1.4000,0.0700,-0.3500,1000.3043,8.5586,4.3945,1.8998,1590567224,N
72,2209645,8.6572,4.4459,1.7898,0.7000,0.7000,-0.1400,1000.3042,8.5572,4.4066,1.8778,1590567225,N
72,2207891,8.6524,4.4195,1.8879,-0.5600,0.9100,-0.0700,1000.3036,8.5564,4.4054,1.8846,1590567225,N
72,2208150,8.6596,4.4219,1.9167,-0.0700,0.1400,-0.3500,1000.3031,8.5568,4.4028,1.8886,1590567225,N
73,2208856,8.6644,4.4076,1.8736,0.2800,0.4200,-0.0700,1000.3027,8.5590,4.4003,1.8844,1590567225,N
72,2209965,8.6764,4.3837,1.8401,0.0700,1.1200,0.3500,1000.3024,8.5628,4.3950,1.8798,1590567225,N
73,2211517,8.6261,4.4243,1.9741,0.2800,0.5600,0.3500,1000.3024,8.5585,4.3955,1.8979,1590567225,N
72,2213405,8.6381,4.4770,1.8377,0.7000,0.9100,0.2100,1000.3026,8.5527,4.4115,1.8867,1590567225,N
73,2213303,8.6357,4.3119,1.8975,0.4200,0.7700,0.1400,1000.3022,8.5600,4.3951,1.8920,1590567225,N
72,2210072,8.6261,4.5129,1.8832,0.4200,0.5600,0.0700,1000.3022,8.5509,4.4142,1.8889,1590567225,N
73,2208145,8.6094,4.4435,1.8281,0.0700,0.8400,-0.1400,1000.3026,8.5482,4.4229,1.8808,1590567225,N
72,2208397,8.6429,4.4435,1.8377,0.0700,1.0500,-0.1400,1000.3024,8.5462,4.4285,1.8765,1590567226,N
73,2209236,8.6477,4.4937,1.9502,0.2100,0.5600,-0.2100,1000.3026,8.5393,4.4362,1.8897,1590567226,N
72,2210365,8.6716,4.4195,1.8855,0.2100,0.5600,-0.1400,1000.3026,8.5431,4.4294,1.8884,1590567226,N
73,2212089,8.6213,4.4506,1.9119,0.1400,0.4200,0.1400,1000.3022,8.5426,4.4287,1.8924,1590567226,N
73,2214307,8.6022,4.4698,1.8927,0.1400,1.1200,0.2100,1000.3016,8.5370,4.4375,1.8971,1590567226,N
73,2214906,8.6333,4.3837,1.9358,0.5600,0.5600,-0.1400,1000.3007,8.5400,4.4283,1.9049,1590567226,N
73,2212050,8.6477,4.3932,1.8640,-0.0700,0.5600,0.1400,1000.2999,8.5471,4.4176,1.8981,1590567226,N
73,2209857,8.6166,4.5129,1.8784,-0.0700,0.4900,0.3500,1000.2990,8.5427,4.4280,1.8937,1590567226,N
73,2210102,8.6166,4.4219,1.8449,0.9100,-0.3500,-0.1400,1000.2987,8.5478,4.4252,1.8771,1590567226,N
73,2210899,8.6213,4.4674,1.8473,0.3500,0.2100,-0.1400,1000.2983,8.5466,4.4310,1.8689,1590567226,N
73,2212010,8.5831,4.3837,1.9262,0.0700,0.3500,0.2800,1000.2975,8.5495,4.4201,1.8815,1590567227,N
73,2213421,8.6333,4.4818,1.8281,0.4200,0.2800,-0.2800,1000.2968,8.5469,4.4305,1.8686,1590567227,N
73,2215163,8.6309,4.4291,1.8066,-0.2800,0.9100,0.5600,1000.2958,8.5511,4.4257,1.8606,1590567227,N
73,2215768,8.6931,4.3214,1.9382,-0.2800,0.2800,-0.0700,1000.2950,8.5624,4.3975,1.8756,1590567227,N
73,2212695,8.6022,4.4602,1.7946,-0.1400,0.6300,0.0700,1000.2943,8.5593,4.4091,1.8625,1590567227,N
73,2210018,8.6501,4.3884,1.8233,-0.0700,0.7000,0.1400,1000.2940,8.5635,4.4031,1.8574,1590567227,N
73,2209908,8.6309,4.4195,1.8066,0.4200,0.2800,-0.0700,1000.2938,8.5644,4.4060,1.8461,1590567227,N
73,2210564,8.6118,4.4004,1.8736,-0.2800,0.0700,0.2800,1000.2942,8.5676,4.3979,1.8509,1590567227,N
73,2211517,8.6261,4.4315,1.9071,-0.2100,0.3500,0.2100,1000.2944,8.5653,4.3975,1.8620,1590567227,N
73,2213005,8.6453,4.4506,1.8832,-0.0700,0.4200,-0.0700,1000.2938,8.5619,4.4026,1.8658,1590567227,N
73,2214771,8.6548,4.4746,1.8329,0.0700,0.8400,0.4900,1000.2936,8.5593,4.4099,1.8605,1590567228,N
73,2216301,8.6381,4.3310,1.9167,-0.7000,0.3500,0.5600,1000.2930,8.5693,4.3847,1.8739,1590567228,N
73,2213722,8.6836,4.4913,1.8568,0.5600,0.9100,0.2100,1000.2931,8.5621,4.4006,1.8699,1590567228,N
73,2210747,8.6453,4.3884,1.9071,-0.6300,0.7700,0.2800,1000.2935,8.5641,4.3917,1.8814,1590567228,N
73,2209995,8.6237,4.4483,1.9406,-0.6300,0.7000,0.2100,1000.2941,8.5590,4.3953,1.8963,1590567228,N
73,2210695,8.6548,4.4841,1.8353,0.1400,0.7000,0.4200,1000.2940,8.5565,4.4054,1.8841,1590567228,N
73,2211857,8.6644,4.4435,1.8736,-0.0700,0.7700,-0.0700,1000.2940,8.5547,4.4089,1.8837,1590567228,N
73,2213478,8.5519,4.4435,1.9310,0.0700,0.2800,-0.0700,1000.2941,8.5484,4.4167,1.8942,1590567228,N
73,2215380,8.6237,4.4315,1.8640,0.5600,-0.2100,-0.0700,1000.2949,8.5516,4.4155,1.8826,1590567228,N
73,2217322,8.6764,4.4770,1.8425,0.5600,0.3500,0.4200,1000.2957,8.5529,4.4181,1.8702,1590567228,N
73,2216214,8.5639,4.4004,1.9765,0.4200,0.3500,-0.0700,1000.2957,8.5485,4.4175,1.8919,1590567229,N
73,2213116,8.6261,4.4602,1.8879,0.6300,-0.1400,-0.4900,1000.2955,8.5464,4.4242,1.8856,1590567229,N
73,2211613,8.6405,4.4411,1.9143,-0.1400,0.2800,0.2100,1000.2953,8.5483,4.4187,1.8899,1590567229,N
74,2212036,8.6357,4.4004,1.8138,0.0700,0.1400,0.1400,1000.2949,8.5561,4.4107,1.8733,1590567229,N
73,2212868,8.6764,4.5057,1.8832,0.6300,0.4200,0.1400,1000.2944,8.5513,4.4211,1.8707,1590567229,N
73,2214114,8.6237,4.3454,1.9047,-0.1400,0.2800,0.2800,1000.2947,8.5596,4.4017,1.8782,1590567229,N
73,2215654,8.6094,4.4459,1.8568,0.3500,0.4200,0.1400,1000.2950,8.5570,4.4088,1.8736,1590567229,N
74,2217670,8.6501,4.4243,1.8855,0.0700,0.8400,0.2800,1000.2951,8.5565,4.4079,1.8781,1590567229,N
73,2217185,8.6381,4.4626,1.9358,0.4200,1.1200,0.3500,1000.2953,8.5491,4.4164,1.8919,1590567229,N
73,2213709,8.6548,4.4004,1.8808,1.9600,0.5600,-0.2800,1000.2955,8.5479,4.4214,1.8853,1590567229,N
73,2211637,8.6429,4.4578,1.8808,3.7800,1.2600,-0.2100,1000.2950,8.5350,4.4490,1.8792,1590567230,N
74,2211788,8.7147,4.3765,1.6774,23.6600,1.6800,0.3500,1000.2952,8.4963,4.5622,1.7802,1590567230,N
73,2212389,8.5974,4.3525,1.8879,-0.9100,1.4000,0.9100,1000.2953,8.5147,4.5148,1.8131,1590567230,N
73,2213327,8.6166,4.6134,1.6845,3.1500,0.2100,-0.7000,1000.2960,8.5040,4.5492,1.7769,1590567230,N
73,2214872,8.5854,4.4913,1.7061,0.0700,-0.3500,-0.2100,1000.2957,8.5156,4.5343,1.7593,1590567230,N
74,2216265,8.5878,4.4554,1.7898,10.8500,-1.8900,0.7000,1000.2952,8.5134,4.5536,1.7194,1590567230,N
73,2216172,8.7123,4.8383,1.2538,10.0100,1.6800,2.5200,1000.2944,8.4865,4.6460,1.6016,1590567230,N
73,2211213,8.6046,4.6229,1.6247,-10.0800,6.5800,0.0700,1000.2934,8.4823,4.6266,1.6780,1590567230,N
73,2206930,8.5208,4.4554,1.7683,-7.0000,2.5900,0.9800,1000.2932,8.5031,4.5671,1.7347,1590567230,N
74,2206471,8.6692,4.5153,1.8114,-7.9100,0.2100,-0.6300,1000.2930,8.5271,4.5084,1.7699,1590567230,N
73,2206875,8.6166,4.4124,1.8233,-1.5400,0.4200,0.3500,1000.2927,8.5401,4.4774,1.7860,1590567231,N
73,2208199,8.6429,4.4698,1.8257,-3.2200,0.7000,0.2100,1000.2924,8.5480,4.4548,1.8044,1590567231,N
73,2210379,8.6524,4.4459,1.9167,-1.1200,0.7000,0.4200,1000.2930,8.5505,4.4395,1.8304,1590567231,N
74,2212572,8.6931,4.4387,1.8784,-0.2100,0.4900,0.4200,1000.2933,8.5554,4.4266,1.8386,1590567231,N
73,2214771,8.6094,4.4195,1.8616,-0.6300,0.5600,0.7000,1000.2930,8.5590,4.4163,1.8464,1590567231,N
73,2213547,8.6261,4.4674,1.8951,0.2800,0.4900,0.2800,1000.2925,8.5547,4.4210,1.8551,1590567231,N
73,2210562,8.6692,4.4626,1.8903,0.2100,0.0700,0.0700,1000.2919,8.5553,4.4190,1.8572,1590567231,N
74,2209251,8.5974,4.4889,1.9454,-0.1400,0.1400,0.4200,1000.2909,8.5503,4.4224,1.8723,1590567231,N
73,2209531,8.6979,4.4650,1.8449,0.5600,0.0700,-0.1400,1000.2901,8.5528,4.4225,1.8606,1590567231,N
73,2210357,8.6453,4.5248,1.8473,-0.2100,0.4900,0.2100,1000.2892,8.5484,4.4325,1.8572,1590567231,N
73,2211564,8.6213,4.3860,1.8066,0.2800,0.1400,0.0700,1000.2893,8.5561,4.4222,1.8460,1590567232,N
74,2213072,8.6261,4.4913,1.8401,0.2100,0.4900,0.0700,1000.2894,8.5515,4.4318,1.8443,1590567232,N
74,2214831,8.6285,4.4195,1.8640,-0.5600,0.8400,0.4200,1000.2888,8.5540,4.4235,1.8529,1590567232,N
73,2214260,8.6453,4.4602,1.8425,0.1400,0.6300,0.4200,1000.2884,8.5539,4.4243,1.8509,1590567232,N
73,2210392,8.6309,4.4961,1.8209,-0.3500,0.4200,0.0700,1000.2880,8.5517,4.4310,1.8454,1590567232,N
73,2208264,8.6357,4.4339,1.8664,-0.1400,0.4900,0.0700,1000.2877,8.5528,4.4268,1.8505,1590567232,N
74,2208224,8.6333,4.4219,1.8616,0.1400,0.2100,0.0700,1000.2870,8.5555,4.4211,1.8511,1590567232,N
73,2208949,8.5878,4.4411,1.7994,0.3500,0.7000,0.0700,1000.2870,8.5531,4.4290,1.8437,1590567232,N
73,2210106,8.6620,4.4076,1.8425,0.2100,0.4900,0.2800,1000.2869,8.5582,4.4195,1.8429,1590567232,N
73,2211585,8.6046,4.4315,1.8497,0.3500,0.5600,0.1400,1000.2866,8.5562,4.4223,1.8454,1590567232,N
74,2213025,8.6285,4.5918,1.8784,2.3100,-1.6800,0.0700,1000.2859,8.5501,4.4412,1.8278,1590567233,N
73,2213340,8.6716,4.3980,1.8042,0.6300,-1.7500,-0.2100,1000.2853,8.5673,4.4171,1.8060,1590567233,N
73,2209815,8.7123,4.4818,1.6798,1.4700,-1.6100,-0.3500,1000.2851,8.5772,4.4160,1.7608,1590567233,N
73,2206422,8.6453,4.4554,1.6893,-2.3100,0.4900,-1.1900,1000.2857,8.5763,4.4198,1.7556,1590567233,N
73,2205502,8.7099,4.6301,1.7515,-6.3000,2.9400,-0.3500,1000.2858,8.5615,4.4361,1.7868,1590567233,N
73,2205939,8.6429,4.3119,1.9071,-0.9800,0.3500,0.7000,1000.2859,8.5743,4.4001,1.8140,1590567233,N
73,2207443,8.6357,4.5631,1.7779,0.6300,0.2800,-0.3500,1000.2859,8.5616,4.4293,1.8032,1590567233,N
73,2209918,8.5854,4.3813,1.8377,-0.7000,0.9100,0.4200,1000.2866,8.5637,4.4191,1.8179,1590567233,N
73,2212438,8.6596,4.5296,1.7970,0.4900,0.5600,-0.0700,1000.2872,8.5560,4.4365,1.8118,1590567233,N
73,2214793,8.6477,4.4554,1.8329,-0.6300,0.7000,0.3500,1000.2874,8.5572,4.4313,1.8190,1590567233,N
73,2214548,8.6357,4.4459,1.8688,0.2800,0.4900,0.3500,1000.2874,8.5565,4.4288,1.8281,1590567234,N
73,2211549,8.6166,4.4602,1.8497,-0.0700,0.4900,0.0700,1000.2872,8.5541,4.4314,1.8334,1590567234,N
73,2209663,8.6070,4.4722,1.8784,0.0700,0.2800,0.1400,1000.2867,8.5509,4.4342,1.8413,1590567234,N
73,2210003,8.6166,4.5153,1.7779,0.4900,0.2100,-0.1400,1000.2870,8.5470,4.4480,1.8259,1590567234,N
73,2210541,8.6501,4.4818,1.7539,0.2100,0.5600,0.3500,1000.2872,8.5496,4.4490,1.8113,1590567234,N
73,2211354,8.6381,4.4195,1.8018,0.2100,0.4900,0.0700,1000.2870,8.5537,4.4417,1.8100,1590567234,N
73,2212768,8.6668,4.4291,1.7922,0.1400,0.3500,0.0700,1000.2869,8.5587,4.4339,1.8052,1590567234,N
73,2214561,8.6166,4.4435,1.8090,-0.4900,1.2600,0.2800,1000.2867,8.5560,4.4356,1.8140,1590567234,N
73,2214726,8.6166,4.3741,1.8185,0.5600,0.7000,0.0700,1000.2860,8.5591,4.4282,1.8174,1590567234,N
73,2211302,8.6453,4.4387,1.7874,-0.1400,0.6300,0.3500,1000.2857,8.5617,4.4249,1.8132,1590567234,N
73,2208720,8.6716,4.4363,1.8257,0.3500,0.6300,0.3500,1000.2857,8.5630,4.4216,1.8151,1590567235,N
73,2208446,8.6381,4.4339,1.7827,0.4900,0.2800,-0.0700,1000.2850,8.5639,4.4233,1.8070,1590567235,N
73,2208921,8.6501,4.4554,1.8162,0.0700,0.4900,0.2100,1000.2849,8.5633,4.4238,1.8085,1590567235,N
73,2209854,8.5711,4.4387,1.7827,-0.1400,0.7000,0.0700,1000.2845,8.5601,4.4300,1.8084,1590567235,N
73,2211329,8.6620,4.4818,1.8233,0.0700,0.4900,0.0700,1000.2842,8.5579,4.4334,1.8104,1590567235,N
73,2212938,8.6285,4.4411,1.7803,0.2100,0.5600,0.1400,1000.2838,8.5588,4.4337,1.8055,1590567235,N
73,2214493,8.6740,4.2951,1.7946,-0.9800,0.7000,0.2100,1000.2825,8.5746,4.4014,1.8097,1590567235,N
73,2212216,8.6692,4.4937,1.7994,-0.0700,0.6300,0.1400,1000.2820,8.5695,4.4120,1.8078,1590567235,N
72,2209108,8.6716,4.4076,1.7827,-0.3500,-0.0700,-0.0700,1000.2814,8.5762,4.4021,1.8003,1590567235,N
73,2208375,8.6548,4.4148,1.8784,-0.4200,0.2100,0.2800,1000.2820,8.5773,4.3939,1.8149,1590567235,N
72,2209136,8.6261,4.4913,1.8688,-0.2100,0.4200,0.2100,1000.2833,8.5693,4.4051,1.8254,1590567236,N
73,2210245,8.6453,4.4841,1.7731,-0.0700,0.3500,0.2100,1000.2842,8.5676,4.4132,1.8141,1590567236,N
72,2211760,8.6453,4.4602,1.8257,-0.0700,0.4900,0.1400,1000.2849,8.5653,4.4166,1.8166,1590567236,N
73,2213584,8.6142,4.4698,1.8377,0.1400,0.3500,0.0700,1000.2847,8.5609,4.4235,1.8203,1590567236,N
72,2215469,8.6189,4.4578,1.8592,0.1400,0.5600,0.5600,1000.2843,8.5589,4.4242,1.8283,1590567236,N
72,2215278,8.6692,4.5176,1.8520,0.6300,0.5600,0.2100,1000.2838,8.5527,4.4354,1.8297,1590567236,N
72,2212249,8.6859,4.4052,1.8688,0.4200,0.3500,0.1400,1000.2831,8.5582,4.4230,1.8346,1590567236,N
72,2210328,8.6644,4.4865,1.7444,0.4200,0.5600,0.1400,1000.2826,8.5578,4.4315,1.8155,1590567236,N
72,2210455,8.6620,4.4124,1.7611,0.6300,0.7000,0.1400,1000.2817,8.5615,4.4286,1.8052,1590567236,N
72,2210876,8.6788,4.4626,1.7850,1.0500,0.4200,-0.0700,1000.2810,8.5603,4.4341,1.7972,1590567236,N
72,2211982,8.6501,4.4124,1.8449,0.2800,0.4900,-0.1400,1000.2804,8.5610,4.4289,1.8068,1590567237,N
72,2213313,8.6453,4.4746,1.7922,0.1400,0.4900,0.2100,1000.2808,8.5599,4.4325,1.8034,1590567237,N
72,2215011,8.5998,4.4961,1.8090,-0.3500,0.9800,0.4200,1000.2815,8.5538,4.4416,1.8097,1590567237,N
72,2215622,8.6644,4.4124,1.7827,-0.2800,0.4900,0.4200,1000.2822,8.5619,4.4277,1.8053,1590567237,N
72,2212495,8.5926,4.5105,1.7563,-3.2900,0.4900,2.0300,1000.2830,8.5710,4.4106,1.8040,1590567237,N
72,2210157,8.5998,4.2712,1.9047,-3.6400,-0.2800,1.1900,1000.2836,8.5936,4.3549,1.8316,1590567237,N
72,2210297,8.6740,4.2066,1.8951,0.8400,-1.1200,0.4900,1000.2837,8.6133,4.3153,1.8328,1590567237,N
72,2211099,8.7003,4.4602,1.7372,2.8000,0.7000,-0.6300,1000.2837,8.5978,4.3567,1.8075,1590567237,N
72,2211899,8.6836,4.3884,1.8497,1.3300,1.6800,1.4700,1000.2845,8.5929,4.3616,1.8191,1590567237,N
72,2212966,8.6668,4.3478,1.8209,2.8700,0.5600,0.0700,1000.2852,8.5892,4.3712,1.8133,1590567237,N
72,2214174,8.6931,4.4459,1.7420,1.1900,0.9100,0.4200,1000.2855,8.5850,4.3858,1.7979,1590567238,N
72,2215153,8.7338,4.2664,1.6750,-1.1900,0.6300,0.7000,1000.2854,8.6067,4.3511,1.7785,1590567238,N
72,2212728,8.7147,4.4339,1.7946,-2.4500,1.4700,0.2100,1000.2850,8.6025,4.3530,1.7940,1590567238,N
72,2210155,8.6859,4.2736,1.9214,-2.2400,1.5400,0.6300,1000.2850,8.6074,4.3267,1.8337,1590567238,N
72,2209993,8.6309,4.4626,1.9789,-1.4000,0.4200,0.0700,1000.2853,8.5939,4.3402,1.8651,1590567238,N
72,2210632,8.6548,4.2377,1.9167,-0.4200,0.9100,0.3500,1000.2866,8.6006,4.3195,1.8821,1590567238,N
72,2211575,8.6237,4.5488,1.9286,-0.3500,0.1400,0.2800,1000.2874,8.5836,4.3505,1.8881,1590567238,N
72,2212769,8.6955,4.2233,1.9310,-0.3500,-0.2800,-0.0700,1000.2880,8.5991,4.3173,1.8939,1590567238,N
72,2214449,8.7051,4.3980,1.8712,-0.2800,0.2100,-0.0700,1000.2877,8.5976,4.3232,1.8871,1590567238,N
72,2215679,8.7194,4.3334,1.8927,-0.3500,-0.9800,-0.0700,1000.2878,8.6076,4.3074,1.8778,1590567238,N
72,2213019,8.7099,4.3382,1.8018,0.5600,0.1400,-0.0700,1000.2875,8.6104,4.3100,1.8589,1590567239,N
72,2210106,8.6716,4.3932,1.8305,0.0700,0.8400,0.5600,1000.2880,8.6056,4.3210,1.8553,1590567239,N
71,2209146,8.7529,4.1946,1.9262,-0.1400,1.6800,0.7000,1000.2888,8.6144,4.2936,1.8780,1590567239,N
72,2209556,8.6548,4.3621,1.8712,0.9100,1.8900,0.7700,1000.2894,8.6032,4.3132,1.8845,1590567239,N
72,2210297,8.6524,4.3813,1.8808,-0.9800,1.8900,0.8400,1000.2901,8.5960,4.3224,1.8964,1590567239,N
72,2211676,8.6931,4.2425,2.0363,-0.1400,0.2800,0.1400,1000.2908,8.6016,4.2993,1.9234,1590567239,N
72,2213484,8.6883,4.3621,1.8855,0.5600,0.4900,0.1400,1000.2916,8.5991,4.3084,1.9140,1590567239,N
72,2214306,8.7242,4.2425,1.9167,-0.5600,0.2100,0.2100,1000.2924,8.6106,4.2853,1.9143,1590567239,N
72,2211556,8.6931,4.1874,1.8951,1.2600,0.4200,-0.6300,1000.2925,8.6157,4.2770,1.9099,1590567239,N
72,2208456,8.6955,4.3525,1.9406,3.0100,-0.5600,-1.3300,1000.2927,8.6046,4.3031,1.9011,1590567239,N
72,2207505,8.7290,4.3190,1.9238,5.8100,-1.1900,-0.9100,1000.2929,8.6005,4.3217,1.8775,1590567240,N
72,2207320,8.7769,4.4291,1.4764,5.0400,0.7700,0.0700,1000.2922,8.5991,4.3636,1.7846,1590567240,N
72,2207428,8.7960,4.5153,1.6941,-3.9900,5.3900,0.7700,1000.2911,8.5814,4.3887,1.8079,1590567240,N
72,2207601,8.5687,4.3167,2.0291,-2.3800,3.2200,-0.1400,1000.2911,8.5668,4.3861,1.8819,1590567240,N
72,2208421,8.6548,4.3789,1.9884,-1.3300,2.5900,0.2100,1000.2911,8.5582,4.3859,1.9214,1590567240,N
72,2209485,8.6620,4.2018,2.0865,-0.1400,1.1200,1.2600,1000.2913,8.5725,4.3408,1.9597,1590567240,N
72,2207083,8.6692,4.3023,2.0435,0.2100,0.2100,0.1400,1000.2917,8.5765,4.3265,1.9737,1590567240,N
72,2204762,8.6453,4.3813,2.0363,-0.2100,-0.2800,0.4900,1000.2920,8.5772,4.3221,1.9801,1590567240,N
72,2204501,8.6668,4.2640,2.0195,0.3500,-0.3500,0.4900,1000.2921,8.5879,4.3004,1.9814,1590567240,N
72,2205651,8.6070,4.3813,2.0267,0.4200,0.2100,0.0700,1000.2916,8.5795,4.3138,1.9882,1590567240,N
72,2206774,8.6668,4.3621,1.9836,0.5600,0.2100,0.3500,1000.2914,8.5796,4.3162,1.9829,1590567241,N
72,2208116,8.6524,4.3047,1.9597,0.4200,-0.5600,-0.0700,1000.2916,8.5865,4.3079,1.9710,1590567241,N
72,2210007,8.7362,4.4363,1.9860,0.4200,0.5600,0.4200,1000.2921,8.5814,4.3191,1.9688,1590567241,N
72,2211959,8.6357,4.2616,2.0243,-0.5600,0.3500,0.5600,1000.2929,8.5880,4.2998,1.9819,1590567241,N
72,2209930,8.6836,4.4100,2.0004,0.4900,0.3500,0.0700,1000.2932,8.5811,4.3138,1.9812,1590567241,N
72,2206910,8.6572,4.3310,1.9645,-0.0700,0.4900,0.1400,1000.2921,8.5822,4.3129,1.9786,1590567241,N
72,2206019,8.6764,4.2855,2.0530,-0.2100,0.6300,0.4900,1000.2909,8.5854,4.2992,1.9945,1590567241,N
72,2206581,8.6501,4.3621,2.0363,0.3500,0.3500,0.2800,1000.2902,8.5810,4.3053,2.0002,1590567241,N
72,2207501,8.6548,4.3286,1.9693,-0.4200,0.6300,0.2800,1000.2896,8.5825,4.3041,1.9967,1590567241,N
72,2209107,8.6859,4.3573,2.0483,0.1400,0.6300,0.2800,1000.2888,8.5792,4.3063,2.0057,1590567241,N
72,2210860,8.6812,4.3741,1.9836,0.2100,0.4900,0.3500,1000.2876,8.5783,4.3113,1.9992,1590567242,N
72,2212764,8.6548,4.2592,2.0483,-0.2100,0.3500,0.5600,1000.2870,8.5851,4.2929,2.0092,1590567242,N
72,2211505,8.6907,4.3549,2.0291,0.0700,0.4200,-0.0700,1000.2876,8.5821,4.2981,2.0110,1590567242,N
72,2208290,8.7123,4.3334,2.0483,0.2100,0.4900,-0.0700,1000.2892,8.5811,4.2978,2.0159,1590567242,N
72,2206910,8.7314,4.2712,1.9167,-0.4900,1.5400,0.1400,1000.2902,8.5871,4.2911,2.0045,1590567242,N
72,2207223,8.6644,4.2664,2.0818,-0.9800,0.9100,-0.1400,1000.2913,8.5864,4.2823,2.0264,1590567242,N
72,2207810,8.6931,4.2903,1.9741,0.5600,0.0700,-0.2800,1000.2919,8.5901,4.2817,2.0118,1590567242,N
72,2209003,8.6812,4.2903,1.9669,-0.0700,0.4200,0.0700,1000.2927,8.5935,4.2790,2.0030,1590567242,N
72,2210562,8.6501,4.3190,2.0554,-0.0700,0.4900,0.1400,1000.2925,8.5895,4.2819,2.0138,1590567242,N
72,2212583,8.6668,4.3765,2.0028,-0.1400,0.7000,0.4900,1000.2930,8.5851,4.2915,2.0122,1590567242,N
72,2212795,8.6429,4.3645,2.1224,0.4200,0.4900,-0.3500,1000.2929,8.5737,4.3047,2.0325,1590567243,N
72,2210227,8.6955,4.2568,1.9908,0.9800,0.3500,-0.1400,1000.2927,8.5807,4.2963,2.0211,1590567243,N
72,2208922,8.7194,4.3813,1.9860,0.4900,0.3500,-0.1400,1000.2930,8.5787,4.3056,2.0094,1590567243,N
73,2209696,8.6692,4.3023,1.9645,1.1200,-0.0700,-0.2800,1000.2938,8.5821,4.3059,1.9944,1590567243,N
73,2210784,8.7099,4.3119,1.9573,0.5600,0.0700,-0.1400,1000.2941,8.5870,4.3019,1.9819,1590567243,N
72,2212361,8.6931,4.3358,2.0171,0.2100,0.0700,0.3500,1000.2943,8.5889,4.2973,1.9837,1590567243,N
72,2214225,8.6046,4.3645,1.9525,-0.1400,0.4900,0.0700,1000.2941,8.5836,4.3095,1.9799,1590567243,N
73,2216132,8.6357,4.3669,1.9597,-0.3500,1.3300,0.4900,1000.2940,8.5783,4.3185,1.9832,1590567243,N
73,2216814,8.7266,4.3119,2.0004,0.3500,0.4900,0.0700,1000.2949,8.5824,4.3101,1.9839,1590567243,N
73,2213963,8.6596,4.3023,1.9454,0.1400,0.7000,0.0700,1000.2947,8.5845,4.3085,1.9786,1590567243,N
73,2211816,8.7147,4.2664,2.0028,0.2800,0.7700,0.0700,1000.2952,8.5889,4.2971,1.9841,1590567244,N
73,2211706,8.6620,4.3167,2.0076,0.1400,0.1400,0.0700,1000.2953,8.5893,4.2952,1.9862,1590567244,N
73,2212129,8.7147,4.3238,1.9813,0.0700,0.4900,0.2100,1000.2957,8.5914,4.2923,1.9835,1590567244,N
73,2213004,8.6979,4.3478,2.0004,-0.2100,0.6300,0.0700,1000.2955,8.5890,4.2955,1.9870,1590567244,N
73,2214541,8.6883,4.3143,2.0195,-0.1400,0.3500,-0.2100,1000.2956,8.5886,4.2937,1.9926,1590567244,N
73,2216172,8.6907,4.3549,1.9765,0.4900,0.7000,0.4200,1000.2956,8.5867,4.2996,1.9880,1590567244,N
73,2217552,8.6237,4.2712,2.0698,0.4900,0.8400,-0.2100,1000.2952,8.5819,4.2999,2.0078,1590567244,N
73,2215357,8.6716,4.3143,1.9454,0.8400,0.8400,-0.2800,1000.2947,8.5804,4.3082,1.9966,1590567244,N
73,2213041,8.6213,4.3860,1.9860,0.5600,-0.0700,-0.2100,1000.2944,8.5753,4.3215,1.9900,1590567244,N
73,2212757,8.6501,4.2999,1.9932,0.0700,-0.0700,0.2800,1000.2943,8.5818,4.3098,1.9873,1590567244,N
73,2213736,8.6572,4.2664,2.0506,1.6800,0.1400,0.0700,1000.2948,8.5833,4.3037,1.9937,1590567245,N
73,2214299,8.6429,4.3310,1.9549,3.0800,0.6300,-0.0700,1000.2950,8.5768,4.3230,1.9798,1590567245,N
73,2215347,8.6596,4.4219,1.9143,1.3300,1.0500,0.3500,1000.2958,8.5693,4.3442,1.9661,1590567245,N
73,2217138,8.6118,4.4172,1.9836,-1.3300,1.5400,0.5600,1000.2972,8.5619,4.3520,1.9808,1590567245,N
73,2219966,8.6548,4.3980,1.9047,-0.3500,0.2100,1.1900,1000.2986,8.5699,4.3442,1.9633,1590567245,N
73,2218963,8.7123,4.3190,1.7803,-0.7700,-4.9700,-0.9100,1000.2993,8.6072,4.3024,1.8909,1590567245,N
73,2216084,8.7314,4.4291,1.7827,1.2600,-2.9400,-0.9100,1000.2998,8.6160,4.3067,1.8403,1590567245,N
73,2213920,8.5591,4.4363,1.9669,-11.3400,5.1100,-2.1700,1000.3002,8.5826,4.3314,1.9360,1590567245,N
73,2213486,8.6142,4.2760,2.0530,2.5900,0.9800,1.9600,1000.3004,8.5834,4.3209,1.9557,1590567245,N
73,2214676,8.6524,4.4722,1.7994,1.8200,-0.4900,-1.3300,1000.3007,8.5743,4.3576,1.9139,1590567245,N
73,2217170,8.6118,4.3023,1.9095,-0.2800,0.7700,0.7700,1000.3008,8.5803,4.3438,1.9181,1590567246,N
73,2219498,8.6285,4.4004,1.9693,1.1200,0.4200,-0.2800,1000.3011,8.5712,4.3586,1.9255,1590567246,N
73,2221842,8.7003,4.4028,1.8688,-0.2100,0.8400,0.4200,1000.3007,8.5735,4.3583,1.9157,1590567246,N
73,2222306,8.6907,4.3621,1.9597,0.9800,0.4200,-0.1400,1000.3014,8.5728,4.3576,1.9205,1590567246,N
73,2219566,8.6955,4.4435,1.8449,-0.0700,0.6300,0.2100,1000.3017,8.5722,4.3656,1.9050,1590567246,N
73,2217797,8.6931,4.3286,1.8999,0.0700,0.8400,0.2100,1000.3021,8.5773,4.3550,1.9063,1590567246,N
73,2217848,8.7027,4.3478,1.9478,0.4900,0.4200,-0.1400,1000.3019,8.5787,4.3497,1.9119,1590567246,N
73,2218343,8.6524,4.3525,1.9167,0.4900,0.4900,0.2800,1000.3022,8.5796,4.3479,1.9121,1590567246,N
73,2219359,8.6931,4.3741,1.8951,0.4900,0.4900,0.2800,1000.3019,8.5813,4.3472,1.9064,1590567246,N
73,2220574,8.6213,4.3789,1.9143,0.2800,0.2800,0.1400,1000.3015,8.5791,4.3512,1.9071,1590567246,N
73,2222268,8.6764,4.3669,1.8784,-0.2100,1.0500,0.4900,1000.3018,8.5804,4.3492,1.9056,1590567247,N
73,2222970,8.7218,4.2736,1.9430,-0.1400,0.4200,0.1400,1000.3008,8.5903,4.3265,1.9126,1590567247,N
73,2220373,8.6764,4.4148,1.9214,0.0700,0.6300,0.1400,1000.3005,8.5845,4.3375,1.9141,1590567247,N
73,2217947,8.7290,4.2736,1.9143,-0.4900,1.2600,0.2800,1000.2999,8.5917,4.3203,1.9205,1590567247,N
73,2217557,8.6836,4.3071,2.0052,-0.2800,0.4200,0.1400,1000.2993,8.5931,4.3100,1.9374,1590567247,N
73,2218162,8.7171,4.3621,1.9238,0.2800,0.2100,0.1400,1000.2987,8.5943,4.3108,1.9303,1590567247,N
73,2219180,8.6812,4.3837,1.9549,-0.2800,0.5600,0.0700,1000.2984,8.5898,4.3174,1.9355,1590567247,N
73,2220583,8.6764,4.2760,1.9980,-0.2800,0.2100,0.0700,1000.2975,8.5946,4.3024,1.9474,1590567247,N
73,2222318,8.6596,4.3789,1.9047,0.4200,0.4900,-0.0700,1000.2966,8.5897,4.3163,1.9382,1590567247,N
73,2223969,8.6501,4.2784,1.9741,-0.0700,0.2800,0.2100,1000.2968,8.5938,4.3047,1.9456,1590567247,N
73,2221981,8.6812,4.3597,1.9406,0.2100,0.1400,0.0700,1000.2975,8.5931,4.3084,1.9410,1590567248,N
73,2219028,8.6764,4.3262,1.9502,-0.2100,-0.1400,-0.0700,1000.2977,8.5960,4.3033,1.9393,1590567248,N
73,2217980,8.7075,4.3071,2.0028,0.4900,-0.2100,0.0700,1000.2982,8.5992,4.2945,1.9445,1590567248,N
73,2218026,8.6812,4.2927,2.0674,2.5200,-0.2100,-0.0700,1000.2983,8.5956,4.2963,1.9566,1590567248,N
73,2218161,8.7123,4.4052,1.8473,3.6400,-0.0700,-0.4200,1000.2983,8.5888,4.3264,1.9198,1590567248,N
73,2218725,8.6955,4.3334,1.6845,12.0400,-1.0500,0.7700,1000.2993,8.5872,4.3686,1.8290,1590567248,N
73,2219613,8.6812,4.4243,1.5888,11.4100,2.1700,-0.8400,1000.3002,8.5551,4.4576,1.7637,1590567248,N
73,2220589,8.6788,4.2640,1.7874,-2.5900,5.2500,2.1700,1000.3012,8.5626,4.4243,1.8102,1590567248,N
73,2217473,8.7027,4.4937,1.8473,1.1900,1.9600,0.8400,1000.3030,8.5534,4.4375,1.8213,1590567248,N
73,2213150,8.6022,4.4794,1.7707,-1.8200,0.3500,0.1400,1000.3033,8.5565,4.4335,1.8168,1590567248,N
73,2211735,8.6907,4.3980,1.8975,-2.1000,1.4700,0.9100,1000.3041,8.5637,4.4083,1.8438,1590567249,N
73,2212324,8.6572,4.5176,1.8664,-1.4700,-0.4900,0.4200,1000.3043,8.5662,4.4037,1.8434,1590567249,N
73,2213159,8.7171,4.3669,1.8305,-2.8700,-0.7700,-0.2800,1000.3047,8.5848,4.3690,1.8395,1590567249,N
73,2214429,8.7099,4.4339,1.7827,-1.5400,-0.0700,0.2800,1000.3045,8.5918,4.3605,1.8269,1590567249,N
73,2216119,8.6764,4.4028,1.9645,-0.7000,0.2100,0.0700,1000.3043,8.5884,4.3561,1.8531,1590567249,N
73,2217706,8.6477,4.3214,1.8688,0.1400,0.5600,0.4900,1000.3039,8.5923,4.3464,1.8578,1590567249,N
73,2216693,8.6716,4.4004,1.8712,0.2100,0.7000,0.1400,1000.3033,8.5879,4.3536,1.8612,1590567249,N
73,2213171,8.6740,4.3454,1.8592,-0.4200,1.2600,0.2100,1000.3026,8.5877,4.3510,1.8681,1590567249,N
73,2211142,8.6596,4.4411,1.9382,-0.4200,1.1900,0.6300,1000.3011,8.5791,4.3601,1.8866,1590567249,N
73,2211475,8.7099,4.3143,1.9119,0.2100,0.2100,0.6300,1000.3008,8.5891,4.3397,1.8880,1590567249,N
73,2212301,8.6716,4.3837,1.8664,-0.2800,0.4200,0.5600,1000.3008,8.5910,4.3380,1.8835,1590567250,N
73,2213653,8.6692,4.3525,1.9478,-0.4900,0.7700,0.7000,1000.3002,8.5912,4.3307,1.8990,1590567250,N
73,2215146,8.6955,4.3573,1.8544,0.1400,0.1400,-0.1400,1000.2995,8.5939,4.3306,1.8873,1590567250,N
73,2216950,8.7003,4.3502,1.8784,-0.2100,0.7000,0.5600,1000.2994,8.5967,4.3252,1.8867,1590567250,N
73,2217183,8.6453,4.3382,1.9406,0.2100,0.3500,-0.0700,1000.2991,8.5937,4.3266,1.8972,1590567250,N
73,2214104,8.7434,4.3310,1.8377,0.4200,0.4200,-0.0700,1000.2979,8.5989,4.3225,1.8828,1590567250,N
73,2211428,8.6907,4.3358,1.9190,0.3500,0.5600,-0.0700,1000.2975,8.5972,4.3231,1.8896,1590567250,N
73,2211162,8.7003,4.3023,1.9238,0.5600,-0.0700,0.0700,1000.2971,8.6021,4.3127,1.8909,1590567250,N
73,2211488,8.6357,4.3286,1.9143,0.2800,0.3500,0.1400,1000.2964,8.5999,4.3149,1.8956,1590567250,N
73,2212318,8.7218,4.2832,1.8903,-0.2800,0.5600,0.5600,1000.2950,8.6081,4.2988,1.8952,1590567250,N
73,2213557,8.6788,4.3382,1.9023,0.3500,0.2800,0.5600,1000.2935,8.6084,4.2987,1.8938,1590567251,N
73,2215135,8.6883,4.3908,1.9334,-0.2100,1.1200,0.4900,1000.2925,8.6004,4.3097,1.9052,1590567251,N
73,2215717,8.7458,4.2616,2.0028,0.4900,0.6300,-0.2100,1000.2911,8.6027,4.2972,1.9232,1590567251,N
73,2212471,8.6668,4.3238,1.8760,-0.0700,0.6300,0.2100,1000.2898,8.6029,4.2998,1.9161,1590567251,N
73,2209411,8.6979,4.2855,1.8927,0.1400,0.8400,-0.0700,1000.2885,8.6044,4.2977,1.9144,1590567251,N
73,2208891,8.6716,4.3382,1.8832,0.0700,0.2100,-0.0700,1000.2874,8.6039,4.3020,1.9069,1590567251,N
73,2209255,8.6668,4.3095,1.9047,0.2800,0.4200,0.0700,1000.2871,8.6040,4.3021,1.9064,1590567251,N
73,2210116,8.6620,4.3645,1.8903,0.1400,0.5600,0.1400,1000.2867,8.5999,4.3114,1.9038,1590567251,N
73,2211497,8.7147,4.3454,1.8832,0.0700,0.5600,-0.0700,1000.2863,8.5999,4.3133,1.8994,1590567251,N
73,2213154,8.6501,4.3717,1.8927,0.3500,0.7000,0.2800,1000.2857,8.5949,4.3232,1.8992,1590567251,N
73,2214564,8.7123,4.1803,1.9669,-0.6300,0.6300,0.3500,1000.2853,8.6086,4.2882,1.9167,1590567252,N
73,2212022,8.6644,4.2808,1.8712,0.2100,0.4900,0.0700,1000.2852,8.6107,4.2874,1.9091,1590567252,N
73,2208279,8.6357,4.2784,1.9884,0.9800,-1.4000,-0.2100,1000.2853,8.6144,4.2790,1.9109,1590567252,N
73,2205776,8.7290,4.3430,1.9071,2.0300,-1.9600,-0.4200,1000.2855,8.6197,4.2796,1.8859,1590567252,N
73,2205534,8.7817,4.3789,1.7827,-1.9600,-1.1200,-1.6100,1000.2862,8.6251,4.2807,1.8585,1590567252,N
73,2205896,8.6812,4.3286,1.8736,-9.0300,3.7800,-0.6300,1000.2871,8.6164,4.2746,1.9120,1590567252,N
73,2206943,8.7290,4.1827,1.9334,0.7700,1.5400,1.1200,1000.2875,8.6235,4.2559,1.9216,1590567252,N
73,2209797,8.7147,4.5272,1.7707,0.0700,0.7700,0.2800,1000.2890,8.6098,4.2974,1.8906,1590567252,N
73,2212905,8.7099,4.2975,1.9908,-1.2600,1.2600,0.8400,1000.2906,8.6102,4.2844,1.9179,1590567252,N
73,2213111,8.6979,4.4554,2.0171,0.4200,0.7000,-0.0700,1000.2913,8.5933,4.3107,1.9349,1590567252,N
73,2210209,8.7027,4.2688,1.8640,-0.2100,0.4900,0.2800,1000.2919,8.6029,4.2972,1.9221,1590567253,N
73,2208722,8.6142,4.4554,1.7492,-0.1400,1.0500,0.5600,1000.2926,8.5945,4.3267,1.8932,1590567253,N
73,2209385,8.7027,4.1587,1.8449,-1.1200,0.9100,0.9100,1000.2925,8.6152,4.2860,1.8918,1590567253,N
73,2210605,8.7003,4.3597,1.8879,-2.3800,1.8200,0.2100,1000.2928,8.6092,4.2915,1.9065,1590567253,N
73,2212304,8.5759,4.2497,2.0387,-5.1100,2.7300,1.7500,1000.2937,8.6084,4.2664,1.9654,1590567253,N
72,2214330,8.6501,4.2114,2.4479,-0.2100,0.2100,-0.1400,1000.2947,8.5961,4.2479,2.0576,1590567253,N
73,2216248,8.7027,4.2688,2.1511,2.4500,0.2800,-0.1400,1000.2946,8.5904,4.2550,2.0664,1590567253,N
73,2216475,8.8104,4.4339,1.8425,1.0500,0.6300,0.4200,1000.2943,8.5919,4.2769,2.0143,1590567253,N
73,2213535,8.7099,4.1779,2.1751,-1.8200,0.7000,1.2600,1000.2932,8.6040,4.2351,2.0508,1590567253,N
72,2211346,8.6859,4.2616,2.0698,0.7000,-0.2800,0.5600,1000.2924,8.6078,4.2297,2.0462,1590567253,N
73,2211631,8.7601,4.2185,1.9884,0.4900,-0.0700,0.1400,1000.2922,8.6177,4.2182,2.0279,1590567254,N
73,2211916,8.5759,4.2736,1.9860,3.0800,2.1000,-0.4200,1000.2911,8.5963,4.2617,2.0278,1590567254,N
73,2212420,8.9444,4.2975,2.3569,-1.1200,2.1000,1.5400,1000.2904,8.5960,4.2313,2.0916,1590567254,N
72,2213872,8.8032,4.3262,2.0961,2.2400,-2.5200,-1.8200,1000.2900,8.5994,4.2393,2.0611,1590567254,N
73,2215954,8.9874,4.4889,1.3496,5.3200,1.3300,1.0500,1000.2897,8.6101,4.2914,1.9025,1590567254,N
73,2216016,8.5807,4.4913,2.1559,-9.1000,5.3900,0.9800,1000.2897,8.5770,4.3083,2.0110,1590567254,N
72,2212691,8.5400,3.9482,2.4048,0.4900,-0.4200,2.7300,1000.2898,8.6028,4.2200,2.0865,1590567254,N
73,2210961,8.6118,4.2520,2.1224,6.5100,-2.8000,-4.5500,1000.2894,8.5843,4.2705,2.0602,1590567254,N
72,2211156,8.8128,4.5081,1.5793,6.3000,-2.2400,-1.1900,1000.2895,8.5891,4.3236,1.9246,1590567254,N
73,2211306,8.6883,4.3741,1.7300,0.4200,-0.6300,-0.1400,1000.2893,8.5980,4.3266,1.8774,1590567254,N
72,2211589,8.7817,4.3932,1.6008,-1.5400,-0.1400,-1.2600,1000.2887,8.6081,4.3303,1.8220,1590567255,N
72,2211977,8.6788,4.5057,1.9573,-1.4700,0.2100,-1.2600,1000.2879,8.5896,4.3553,1.8497,1590567255,N
72,2212509,8.6955,4.3190,2.0148,-3.3600,0.2100,-0.0700,1000.2878,8.5962,4.3250,1.8893,1590567255,N
73,2209711,8.6309,4.5057,1.7946,1.4000,-0.1400,-0.9100,1000.2874,8.5817,4.3649,1.8633,1590567255,N
72,2207080,8.8152,4.2401,1.5505,-2.1700,1.2600,1.0500,1000.2874,8.6131,4.3248,1.8110,1590567255,N
72,2207080,8.5615,4.4315,2.0267,-2.3800,1.1900,-0.4200,1000.2879,8.5914,4.3439,1.8680,1590567255,N
72,2208278,8.7290,4.3454,1.9908,-2.3800,3.0800,1.8900,1000.2885,8.5899,4.3270,1.9134,1590567255,N
73,2209413,8.7027,4.2497,2.0076,-4.4800,-0.9100,-0.3500,1000.2883,8.6084,4.2803,1.9352,1590567255,N
72,2211449,8.6740,4.3765,1.8544,-1.4000,0.9100,0.4200,1000.2886,8.6064,4.2886,1.9258,1590567255,N
72,2213836,8.7290,4.2664,1.8066,-4.1300,2.3800,1.4000,1000.2885,8.6182,4.2647,1.9260,1590567255,N
72,2216332,8.7745,4.2808,2.0626,-5.0400,4.2700,0.7000,1000.2885,8.6090,4.2537,1.9904,1590567256,N
73,2218433,8.7386,4.2688,2.1129,-7.8400,5.4600,1.4700,1000.2888,8.6007,4.2334,2.0683,1590567256,N
72,2216410,8.5759,4.1348,2.4814,-11.1300,3.2900,1.9600,1000.2889,8.5989,4.1695,2.2011,1590567256,N
72,2214422,8.6788,4.1252,2.4455,-6.6500,-0.2800,1.2600,1000.2894,8.6107,4.1137,2.2591,1590567256,N
73,2214915,8.8367,4.0774,2.1368,-5.0400,3.7800,5.2500,1000.2892,8.6384,4.0541,2.2611,1590567256,N
73,2216237,8.9396,4.3119,1.9382,-10.9900,8.1200,6.4400,1000.2875,8.6479,4.0321,2.2643,1590567256,N
73,2218036,8.8152,4.1276,2.5531,-30.5900,2.5200,10.2200,1000.2865,8.6969,3.8481,2.3930,1590567256,N
73,2220791,8.8511,3.1609,2.5484,-47.4600,-5.6000,12.8100,1000.2849,8.8435,3.4319,2.4869,1590567256,N
73,2224146,9.1884,2.6058,2.8427,-33.9500,2.8000,11.3400,1000.2833,8.9276,3.0837,2.6380,1590567256,N
73,2227527,8.9970,1.6104,3.4074,-53.7600,-11.6200,-1.9600,1000.2818,8.9924,2.6446,2.8832,1590567256,N
73,2229734,9.3488,2.5914,3.3595,-44.2400,-22.2600,-15.6800,1000.2802,8.9776,2.5829,2.9835,1590567257,N
73,2227402,8.9396,2.0076,3.4505,-33.8100,-8.4700,-12.1800,1000.2789,8.9299,2.4793,3.2063,1590567257,N
73,2225442,8.4251,1.6247,4.0008,-7.9100,2.2400,-3.4300,1000.2780,8.8636,2.3449,3.4798,1590567257,N
73,2225950,8.1308,1.3328,5.0034,-2.6600,-2.1000,9.5900,1000.2778,8.8199,2.0909,3.7427,1590567257,N
73,2227858,9.9374,1.6104,3.6108,32.7600,-1.8200,-8.6100,1000.2781,8.8875,2.1077,3.5693,1590567257,N
73,2229894,8.7529,3.0485,2.2732,42.7700,-12.0400,-23.6600,1000.2777,8.9195,2.5679,3.1651,1590567257,N
73,2231522,9.1071,4.2999,2.4431,58.5900,-6.5800,-24.0800,1000.2772,8.8317,3.1630,2.8576,1590567257,N
73,2233263,8.9085,2.7996,1.6104,84.8400,-13.1600,-26.2500,1000.2771,8.8449,3.5271,2.3448,1590567257,N
73,2235427,8.7864,4.9579,0.6293,52.2900,-1.7500,-20.6500,1000.2769,8.6990,4.1124,1.8935,1590567257,N
73,2234889,8.4921,6.1089,0.4403,20.6500,4.3400,-9.6600,1000.2774,8.5098,4.6033,1.6010,1590567257,N
73,2232763,8.5089,7.2622,1.1127,-55.5100,12.8100,28.9100,1000.2777,8.6164,4.3302,1.7824,1590567258,N
73,2231200,8.9539,4.2353,1.4692,-19.3200,7.3500,19.4600,1000.2785,8.7227,4.1069,1.7938,1590567258,N
73,2231086,8.8511,3.3236,1.7779,-10.2200,3.9900,7.8400,1000.2799,8.8146,3.8813,1.8461,1590567258,N
73,2232038,8.8128,3.7448,2.2971,-0.3500,-0.2800,1.5400,1000.2807,8.8165,3.8359,1.9301,1590567258,N
