0,2573576,-0.0455,1.5003,9.6957,2.6600,1.8900,-0.9100,999.5369,-0.0454,1.4996,9.6912,1590568912,N
0,2582156,-0.0024,1.7300,9.6790,5.3900,0.7700,-1.6800,999.5349,-0.0459,1.6623,9.6646,1590568912,N
0,2582284,0.0215,1.8090,9.6359,-2.6600,-2.5200,-1.1900,999.5338,-0.0108,1.0729,9.7478,1590568913,N
0,2580578,0.2273,1.7157,9.6598,0.3500,-2.5900,-1.7500,999.5321,0.0516,3.7647,9.0551,1590568913,N
0,2147483647,0.2154,1.7372,9.6598,4.5500,-4.1300,-2.6600,999.5307,0.1186,2.9470,9.3526,1590568913,N
0,2147483647,0.0048,1.6965,9.7651,-6.6500,-1.8900,-0.8400,999.5292,0.1086,3.1869,9.2737,1590568913,N
0,1135613,0.1077,1.8162,9.6885,7.3500,4.9700,0.9800,999.5287,0.0704,2.0519,9.5893,1590568913,N
0,1324895,0.0909,1.8640,9.6215,7.3500,3.2200,0.5600,999.5283,0.0477,1.6354,9.6692,1590568913,N
0,1327329,0.0861,1.7731,9.7364,-4.1300,2.3100,1.4000,999.5283,0.0351,1.3506,9.7131,1590568913,N
0,2027792,0.1268,1.7085,9.6933,-1.0500,2.3100,0.1400,999.5285,0.0327,1.2382,9.7281,1590568913,N
0,2040883,0.0814,1.7180,9.7196,0.3500,-0.3500,-0.7000,999.5288,0.0450,1.3760,9.7095,1590568913,N
0,2038682,-0.0287,1.6558,9.6407,1.8900,1.4700,-3.9200,999.5285,0.0136,1.1337,9.7409,1590568913,N
0,2040613,0.0622,1.7324,9.6383,4.6900,1.8200,-2.3800,999.5280,0.0056,1.0234,9.7531,1590568914,N
0,2041197,0.0766,1.9190,9.7268,-0.5600,-3.5000,-1.0500,999.5276,0.0500,1.8342,9.6335,1590568914,N
0,2043828,-0.0718,2.0315,9.5043,-2.8700,-4.6200,2.7300,999.5274,0.0678,2.6880,9.4308,1590568914,N
0,2044551,0.4092,1.7970,9.5809,3.2900,2.9400,-1.8900,999.5272,0.1106,1.9089,9.6184,1590568914,N
0,1987373,0.2943,1.8592,9.6526,-3.5700,-6.4400,-1.1900,999.5268,0.2008,2.2284,9.5480,1590568914,N
0,1980603,0.1364,1.7803,9.6191,-0.6300,2.5200,0.7000,999.5271,0.1668,1.9876,9.6017,1590568914,N
0,1979321,0.1077,1.6822,9.6694,3.7800,2.0300,0.4900,999.5272,0.1387,1.8438,9.6308,1590568914,N
0,1978713,0.0646,1.8544,9.7316,-0.9100,0.4200,1.7500,999.5269,0.1213,1.7875,9.6416,1590568914,N
0,1979729,0.1053,1.6510,9.7292,-3.0800,5.1100,2.8000,999.5267,0.0737,1.3856,9.7080,1590568914,N
0,1981997,0.1029,1.7444,9.6383,3.5700,-2.6600,-1.4700,999.5266,0.1033,1.6640,9.6639,1590568914,N
0,1980956,0.2369,1.8329,9.5521,-3.7100,-0.7700,1.1900,999.5260,0.1367,1.7173,9.6541,1590568915,N
0,1977998,-0.0479,1.6582,9.6766,-1.4700,3.6400,1.2600,999.5262,0.0673,1.4112,9.7043,1590568915,N
0,1972410,0.1460,1.7348,9.6933,-1.4000,-0.0700,-2.1700,999.5267,0.0815,1.5016,9.6907,1590568915,N
0,1966659,0.5073,1.6893,9.6455,-2.4500,-1.2600,-1.5400,999.5279,0.1748,1.6529,9.6648,1590568915,N
0,1963961,0.1029,1.6391,9.6407,-0.3500,2.1000,1.5400,999.5286,0.1428,1.5436,9.6834,1590568915,N
0,1967581,0.1555,1.6175,9.6933,0.3500,1.6100,0.8400,999.5281,0.1317,1.4838,9.6929,1590568915,N
0,1967906,0.2728,1.7228,9.7125,7.5600,7.2100,0.9100,999.5279,0.0992,1.3241,9.7163,1590568915,N
0,1967126,0.2249,1.7109,9.6742,-5.3900,-0.7000,-0.3500,999.5275,0.1276,1.3918,9.7065,1590568915,N
0,1965801,0.0814,1.5266,9.7460,-0.5600,0.6300,-0.7000,999.5270,0.1113,1.3646,9.7106,1590568915,N
0,1964416,0.1699,1.6008,9.6909,2.2400,1.2600,-0.7000,999.5264,0.1121,1.3814,9.7082,1590568915,N
0,1959604,0.1053,1.7109,9.7603,-2.3100,2.2400,1.1200,999.5255,0.0904,1.2930,9.7206,1590568916,N
0,1955951,0.1555,1.6439,9.6646,-0.8400,0.9100,0.2100,999.5237,0.0951,1.3123,9.7180,1590568916,N
0,1954312,0.0646,1.6008,9.7053,1.7500,0.1400,0.4200,999.5230,0.0886,1.3442,9.7137,1590568916,N
0,1956530,0.2536,1.6750,9.6718,-2.0300,-1.1200,2.0300,999.5225,0.1323,1.4659,9.6956,1590568916,N
0,1960531,0.1149,1.5769,9.7436,2.8000,3.2900,-0.6300,999.5229,0.0997,1.3534,9.7123,1590568916,N
0,1961949,0.2465,1.6319,9.7029,-3.0800,-4.7600,-0.3500,999.5227,0.1698,1.6071,9.6726,1590568916,N
0,1960594,0.2393,1.5290,9.6861,-4.5500,-6.3000,-0.8400,999.5226,0.2366,1.7915,9.6387,1590568916,N
0,1959128,0.3805,1.4979,9.5904,0.4200,-1.1900,-0.1400,999.5233,0.2767,1.7378,9.6475,1590568916,N
0,1958413,-0.0024,1.4524,9.7436,2.5200,-0.2800,-0.7700,999.5241,0.2232,1.7689,9.6432,1590568916,N
0,1955589,0.3613,1.5577,9.6694,0.4900,-1.0500,-0.6300,999.5247,0.2598,1.7407,9.6474,1590568916,N
0,1953520,0.2393,1.6104,9.7149,4.3400,4.3400,1.1900,999.5255,0.2206,1.6061,9.6717,1590568917,N
0,1954298,0.1460,1.4046,9.6814,-2.5200,0.5600,0.6300,999.5258,0.1993,1.5242,9.6854,1590568917,N
0,1954071,0.3278,1.6032,9.6048,-3.0800,-1.4700,-0.2100,999.5252,0.2361,1.5633,9.6784,1590568917,N
0,1955374,0.2369,1.4692,9.6670,-0.6300,6.7900,2.2400,999.5245,0.1769,1.3307,9.7143,1590568917,N
0,1959890,0.2536,1.4142,9.7723,2.0300,1.8900,0.2100,999.5235,0.1766,1.3135,9.7167,1590568917,N
0,1965576,0.1172,1.5386,9.7484,-0.1400,-0.6300,2.0300,999.5228,0.1717,1.3501,9.7118,1590568917,N
0,1970488,0.0981,1.2156,9.8249,-1.6100,2.6600,2.7300,999.5223,0.1327,1.2041,9.7315,1590568917,N
0,1972536,0.1723,1.3998,9.7723,6.3000,0.1400,2.7300,999.5220,0.1448,1.2827,9.7213,1590568917,N
0,1976317,0.1125,1.4620,9.7005,1.8200,-0.7000,0.0700,999.5217,0.1455,1.3440,9.7130,1590568917,N
0,1980246,0.2536,1.5075,9.6335,-0.4200,-0.1400,1.4000,999.5220,0.1695,1.3832,9.7071,1590568917,N
0,1983079,-0.0455,1.5984,9.7292,-4.7600,8.2600,9.3100,999.5222,0.0567,0.9793,9.7575,1590568918,N
0,1985305,0.2800,1.4788,9.7436,-8.0500,-7.0700,-3.9200,999.5213,0.1577,1.3109,9.7174,1590568918,N
0,1982026,0.2154,1.3232,9.7555,-6.5800,-2.9400,-7.2800,999.5211,0.1871,1.3952,9.7051,1590568918,N
0,1978627,0.5958,0.7274,9.7747,-5.1800,-3.8500,-0.5600,999.5209,0.3077,1.1954,9.7287,1590568918,N
0,1973489,0.1172,1.5888,9.8082,4.3400,-9.5900,-2.3100,999.5201,0.3609,1.5230,9.6809,1590568918,N
0,1961980,1.0289,1.4213,9.7699,-13.5800,-7.2800,-9.3800,999.5203,0.5231,1.4900,9.6787,1590568918,N
0,1953885,0.3063,0.6915,9.8728,-23.1700,-1.4000,-0.9800,999.5193,0.4642,1.1016,9.7335,1590568918,N
0,1942799,0.4905,0.7298,9.9206,-4.2000,-3.2200,-0.7000,999.5181,0.4878,0.9770,9.7457,1590568918,N
0,1943900,0.2297,0.5216,9.8489,-21.1400,-32.0600,-8.3300,999.5184,0.6853,1.0749,9.7234,1590568918,N
0,1983988,2.9504,-0.1962,9.7149,-29.0500,-29.4700,11.0600,999.5183,3.4477,2.4395,8.8506,1590568918,N
0,2004233,1.2108,-0.0837,9.6168,13.1600,12.7400,17.0800,999.5186,0.9924,0.4832,9.7443,1590568919,N
0,1998633,0.7322,-0.1125,9.3918,3.9200,16.3100,3.0100,999.5182,0.7665,0.2792,9.7727,1590568919,N
0,1993307,0.5025,0.0933,9.3009,28.0000,7.7000,-0.2100,999.5182,0.8570,0.4588,9.7584,1590568919,N
0,1995265,1.0720,1.0169,9.7340,10.9200,9.1000,0.2100,999.5183,0.9098,0.6359,9.7436,1590568919,N
0,2005567,0.5575,1.0146,10.2054,10.6400,15.6100,9.3100,999.5190,0.7554,0.7354,9.7498,1590568919,N
0,2023646,0.5767,0.8853,9.9039,17.6400,22.4000,5.7400,999.5196,0.5999,0.8248,9.7535,1590568919,N
0,2036561,0.9595,-0.3398,9.5474,-34.7900,-9.9400,-2.1000,999.5200,0.5612,0.3432,9.7846,1590568919,N
0,2039241,0.3422,1.3304,9.6790,-1.1900,-3.7800,-11.4800,999.5200,0.5792,0.5095,9.7763,1590568919,N
0,2041919,0.1938,1.1797,9.8441,-0.4900,-3.7800,-12.2500,999.5201,0.5431,0.6356,9.7709,1590568919,N
0,2044831,0.2225,1.2156,9.7101,0.5600,-1.6100,-8.2600,999.5204,0.5032,0.7509,9.7649,1590568919,N
0,2045532,0.3613,1.0481,9.7914,9.7300,0.2100,-8.6100,999.5203,0.4970,0.8956,9.7530,1590568920,N
0,2042806,0.2824,1.4883,9.9087,7.0000,-5.7400,-6.0200,999.5208,0.5240,1.1041,9.7302,1590568920,N
0,2041084,0.5168,1.0672,9.7196,14.7700,-4.8300,-4.6200,999.5203,0.5951,1.2799,9.7045,1590568920,N
0,2040784,0.6987,1.6295,9.6861,-6.0200,-6.0900,0.9800,999.5200,0.6588,1.3464,9.6914,1590568920,N
0,2040938,0.9667,1.8879,9.7795,-0.7000,-2.5900,5.3900,999.5196,0.7421,1.4570,9.6694,1590568920,N
0,2041513,0.5360,1.5649,9.2507,-5.9500,-2.1000,11.6200,999.5193,0.7226,1.4367,9.6739,1590568920,N
0,2042529,0.0287,1.2251,7.3436,-17.9900,7.9100,19.8800,999.5190,0.5425,1.1577,9.7230,1590568920,N
0,2043101,-0.9595,1.1127,6.6281,-34.6500,55.7900,32.7600,999.5193,-0.2573,0.0088,9.8033,1590568920,N
0,2043423,-3.0915,0.3757,6.4391,-57.9600,108.3600,66.5000,999.5189,-4.3533,-5.3414,6.9777,1590568920,N
0,2041440,-6.1280,-0.6317,7.4034,-76.6500,158.6200,111.1600,999.5190,-6.4861,-6.9592,2.3814,1590568920,N
0,2037502,-10.3848,-1.7515,7.6427,-107.7300,172.4800,141.1200,999.5197,-7.9384,-5.7541,0.2060,1590568921,N
0,2032461,-10.8562,-2.9504,6.6449,-86.1000,158.9700,111.7900,999.5205,-8.5696,-4.4751,-1.6448,1590568921,N
0,2030036,-10.8897,-2.0411,6.5324,-69.1600,120.6100,74.2000,999.5218,-8.6513,-3.5097,-3.0013,1590568921,N
0,2029509,-9.5809,-1.7994,6.0730,-72.9400,48.6500,23.5900,999.5235,-8.5942,-3.3885,-3.2907,1590568921,N
0,2029867,-9.5689,-1.8042,5.5035,-66.9200,-3.5700,-18.2000,999.5258,-8.4223,-3.9775,-3.0684,1590568921,N
0,2029177,-9.6933,-1.5864,4.4076,-33.8800,-46.3400,-51.0300,999.5290,-7.5491,-5.2321,-3.4362,1590568921,N
0,2027027,-9.9230,-1.3831,3.5366,-25.2000,-58.3100,-62.6500,999.5327,-7.1359,6.5982,-1.3088,1590568921,N
0,2020027,-9.2124,-1.7492,2.9551,-6.8600,-50.5400,-51.9400,999.5378,-8.5459,4.8098,-0.0632,1590568921,N
0,2013153,-8.7434,-2.3689,2.8522,11.7600,-35.6300,-40.2500,999.5436,-9.2557,3.1352,0.8201,1590568921,N
0,2008698,-8.1188,-2.9264,4.1157,-23.3800,-17.7100,-11.9000,999.5493,-9.5074,1.7673,1.6301,1590568921,N
0,2005151,-6.5874,-3.8046,5.6255,-32.2700,-23.1700,5.8800,999.5555,-9.4196,0.4144,2.6963,1590568922,N
0,2003932,-7.2072,-4.2401,5.1924,-43.3300,-30.9400,18.9700,999.5613,-9.1526,-0.6804,3.4551,1590568922,N
0,2002864,-7.1378,-3.9769,4.4243,-43.6100,-21.2800,25.8300,999.5663,-8.9296,-1.4484,3.7862,1590568922,N
0,2001394,-7.2622,-3.3117,4.1157,-32.3400,0.3500,50.1200,999.5695,-8.9411,-1.6052,3.6947,1590568922,N
0,1999880,-9.2602,-2.6369,3.6299,-54.9500,16.6600,86.5900,999.5734,-9.2138,-1.1732,3.1463,1590568922,N
0,1994180,-9.6670,-3.1322,3.0867,-37.3800,36.2600,90.0200,999.5775,-9.4630,-0.7057,2.4748,1590568922,N
0,1987880,-9.4804,-2.3593,3.1250,-11.6200,23.5200,61.3900,999.5816,-9.5776,-0.3705,2.0741,1590568922,N
0,1983132,-9.8560,-2.0889,3.0796,-49.0700,15.3300,13.6500,999.5854,-9.5849,-0.6265,1.9768,1590568922,N
0,1979730,-8.0758,-1.6295,3.5916,-13.0900,23.1700,5.4600,999.5890,-9.5754,-0.7520,1.9792,1590568922,N
0,1977010,-9.5115,-0.2632,5.0704,-40.8800,8.0500,19.4600,999.5922,-9.5740,-0.5734,2.0447,1590568922,N
0,1975188,-8.8989,-1.1749,3.4193,-20.2300,-12.3200,-1.4700,999.5946,-9.4984,-0.7947,2.3064,1590568923,N
0,1973664,-8.2193,-1.2993,3.4217,-12.3200,0.3500,2.6600,999.5964,-9.4479,-0.9271,2.4592,1590568923,N
0,1971878,-8.5735,-1.4022,4.2640,2.4500,7.9100,-6.2300,999.5977,-9.3680,-1.0737,2.6941,1590568923,N
0,1966965,-11.2032,-1.4046,5.5705,9.4500,-20.5800,-18.7600,999.5995,-9.1885,-1.2880,3.1753,1590568923,N
0,1962495,-9.8201,-3.5557,5.6877,-51.9400,-63.8400,-75.3200,999.6012,-8.4774,-2.4577,4.2736,1590568923,N
0,1960498,-8.0351,-5.8265,5.9246,-6.3000,-93.4500,-101.8500,999.6024,-7.2378,-3.6849,5.4959,1590568923,N
0,1959602,-9.5091,-8.8917,6.5444,3.7800,-120.1900,-149.4500,999.6034,-5.5973,-4.8635,6.4177,1590568923,N
0,1958583,-6.4008,-8.9228,6.8507,-10.5700,-144.9000,-201.5300,999.6039,-3.5726,-5.9991,6.8861,1590568923,N
0,1956920,-0.0837,-7.0397,5.6877,62.0200,-115.4300,-197.1900,999.6042,-1.3288,-6.7757,6.9638,1590568923,N
0,1957589,2.4383,-5.7811,6.0873,84.4900,-85.8200,-141.1900,999.6048,0.0539,-2.8345,9.3879,1590568923,N
0,1959993,5.8959,-2.0865,5.6853,136.2900,-73.8500,-54.5300,999.6047,1.4134,-3.4576,9.0674,1590568924,N
0,1960320,4.7880,-0.1866,7.1019,92.6100,-32.9700,9.5200,999.6046,1.9003,-2.5526,9.2759,1590568924,N
0,1961287,4.5224,0.6580,6.7765,92.2600,9.0300,24.5700,999.6038,5.1928,-4.1532,7.2080,1590568924,N
0,1976728,1.0098,-1.5553,6.1352,47.1800,-6.2300,14.5600,999.6020,5.2224,-4.1848,7.1683,1590568924,N
0,1984276,4.4148,9.5043,7.4369,217.7000,-79.0300,-23.8700,999.5977,7.5578,-3.3099,5.3004,1590568924,N
0,1995400,7.7623,6.5611,3.3308,156.7300,23.3800,97.9300,999.5918,8.2104,-2.4461,4.7724,1590568924,N
0,1997863,5.4580,2.1033,9.1430,44.3100,76.7900,143.5700,999.5857,7.4918,-2.9669,5.5894,1590568924,N
0,2003407,6.3625,-1.2203,6.0132,30.3100,45.9900,121.8000,999.5781,7.4364,-3.5602,5.3099,1590568924,N
0,2015951,7.0899,-0.0431,6.5013,66.7800,-7.0000,45.0100,999.5705,8.0564,-3.0648,4.6767,1590568924,N
0,2024242,6.9129,-0.3900,7.8628,18.7600,-0.2100,51.3800,999.5627,8.3185,-2.8389,4.3491,1590568924,N
0,2031342,7.4273,-2.0794,4.8742,8.8900,-46.1300,17.5700,999.5560,8.8513,-3.0256,2.9446,1590568925,N
0,2035723,7.0971,-3.0532,6.3817,-6.7900,23.8000,14.1400,999.5496,8.8696,-3.0073,2.9081,1590568925,N
0,2041003,8.5687,-0.4977,5.3049,-3.6400,-18.5500,-8.0500,999.5436,9.2259,-2.4927,2.1997,1590568925,N
0,2043511,6.6401,-1.2562,9.3272,-20.6500,20.2300,27.8600,999.5386,9.0794,-2.5192,2.7183,1590568925,N
0,2049725,7.3795,-1.8281,4.1707,-5.5300,-35.7700,5.6700,999.5342,9.2941,-2.5179,1.8575,1590568925,N
0,2053426,7.3149,-2.2134,5.1494,8.1200,12.1800,9.1700,999.5304,5.4011,-1.5855,8.0302,1590568925,N
0,2057704,6.1950,-7.7910,6.3960,-94.1500,1.1200,-32.3400,999.5270,6.2606,-2.6798,7.0565,1590568925,N
0,2060586,5.5657,-5.2786,5.1039,-121.8700,-88.3400,-113.6100,999.5243,7.6665,-3.1688,5.2301,1590568925,N
0,2061798,9.4086,0.2776,1.4261,-228.9000,-85.4700,-119.0000,999.5227,9.1346,-1.9786,2.9689,1590568925,N
0,2063566,12.8566,2.1535,0.8231,-129.1500,11.9700,-146.0200,999.5203,9.5646,-0.5343,2.0986,1590568925,N
0,2070426,9.1693,9.2267,2.8786,3.5700,-1.6100,-110.0400,999.5187,9.6434,1.3644,1.1462,1590568926,N
0,2081029,7.6187,4.5129,2.5579,-119.2100,41.2300,1.6800,999.5172,9.6062,1.5001,1.2811,1590568926,N
0,2075184,8.1356,3.8405,1.4883,-117.8800,77.5600,22.1200,999.5155,9.5780,1.2667,1.6815,1590568926,N
0,2046650,8.3342,0.1579,3.8429,-168.0000,118.3000,70.6300,999.5150,9.2024,-0.4813,3.3547,1590568926,N
0,2040704,4.2018,2.2062,7.3173,-25.4100,105.5600,126.0000,999.5147,8.2835,-1.7179,4.9601,1590568926,N
0,2047122,3.2303,-4.2808,11.6602,109.3400,67.7600,123.1300,999.5153,6.4590,-2.6425,6.8898,1590568926,N
0,2062604,3.7352,-0.4642,8.2002,58.0300,74.0600,147.7700,999.5163,4.5495,-2.4567,8.3329,1590568926,N
0,2077686,1.4501,-1.5888,8.8463,86.8000,117.2500,170.7300,999.5171,1.9787,-1.7594,9.4424,1590568926,N
0,2092835,-0.8207,0.4451,8.4203,-18.2700,199.0800,149.0300,999.5178,-0.5237,-0.3850,9.7851,1590568926,N
0,2117884,-6.6305,1.3663,8.9372,7.7700,173.1100,153.3000,999.5195,-2.2300,3.2246,8.9889,1590568926,N
0,2131770,-9.1693,-1.0600,12.1460,-35.3500,98.4200,90.7900,999.5225,-3.1164,-4.8919,7.9075,1590568927,N
0,2132116,-6.0371,-0.5958,7.9274,-92.0500,70.9800,94.9900,999.5248,-4.4868,-4.2499,7.6143,1590568927,N
0,2129811,-6.2070,-2.6847,4.4387,-15.4700,100.3800,58.4500,999.5276,-5.7035,-4.1667,6.8028,1590568927,N
0,2127991,-9.3918,-2.8690,6.8363,30.8000,123.8300,-44.4500,999.5311,-6.4128,-4.1625,6.1416,1590568927,N
0,2120852,-9.2028,0.1244,7.6044,-133.7700,82.0400,-71.9600,999.5347,-6.8114,-4.8582,5.1160,1590568927,N
0,2114591,-10.2700,-0.8279,6.2285,-32.8300,-9.3800,-54.1100,999.5389,-6.6959,-4.8939,5.2331,1590568927,N
0,2110690,-9.1190,-1.4237,2.5029,-123.7600,-56.2100,-28.4900,999.5423,-6.9117,-5.0829,4.7500,1590568927,N
0,2105706,-8.4251,-2.8187,-0.1436,-78.1200,-40.0400,3.2900,999.5456,-7.3167,-5.4766,3.5556,1590568927,N
0,2098706,-9.7436,-2.8331,1.3567,22.2600,-9.7300,46.1300,999.5493,-7.9901,-4.6840,3.2233,1590568927,N
0,2090287,-8.7697,-3.7089,2.4957,-78.6800,-28.3500,65.9400,999.5545,-8.2272,-4.4651,2.9236,1590568927,N
0,2082114,-12.4857,-2.8738,1.3711,-60.9000,-23.1700,29.8200,999.5612,-8.3084,-4.4766,2.6649,1590568928,N
0,2075107,-5.1996,-1.1701,3.7137,-15.8900,-3.5700,45.2900,999.5663,-8.5535,-3.8324,2.8845,1590568928,N
0,2070859,-8.9922,0.1819,1.5003,-46.4100,17.0800,27.8600,999.5713,-9.1162,-2.5620,2.5499,1590568928,N
0,2069828,-9.3607,-1.4142,2.4191,188.3000,93.7300,33.4600,999.5759,-9.5530,-1.2229,1.8478,1590568928,N
0,2070371,-9.5139,0.5599,3.1202,96.8100,65.8700,-19.3900,999.5804,-9.5831,-0.8522,1.8998,1590568928,N
0,2069365,-9.7699,-0.4140,4.4506,-18.6900,6.7900,-33.4600,999.5836,-9.4048,-1.0818,2.5593,1590568928,N
0,2067135,-8.0136,-0.2297,3.8572,14.2800,-3.3600,-47.8100,999.5859,-9.0186,-1.2883,3.6299,1590568928,N
0,2062922,-13.7324,-3.6156,0.6437,-266.0700,-12.6700,-43.0500,999.5878,-9.2256,-2.3801,2.3223,1590568928,N
0,2056700,-7.6427,-2.3880,0.3781,30.5900,-1.9600,-81.4800,999.5901,-8.9541,-3.1253,2.4954,1590568928,N
0,2053625,-8.8152,-6.7454,-1.3304,-8.1200,19.9500,-58.2400,999.5930,-8.8206,-3.7570,2.0621,1590568928,N
0,2052100,-9.0185,-4.7713,-0.4642,48.9300,-19.1100,-32.6900,999.5968,-8.7305,-4.0445,1.8947,1590568929,N
0,2051860,-8.9037,-4.0104,0.5216,36.5400,-8.3300,-55.0200,999.6001,-8.5760,-4.3755,1.8648,1590568929,N
0,2052175,-9.0951,-3.7950,0.5910,13.2300,-17.4300,-18.9700,999.6033,-8.5590,-4.4466,1.7727,1590568929,N
0,2052459,-8.4419,-3.1513,1.2873,63.7700,-18.8300,18.1300,999.6056,-8.7138,-4.0353,1.9893,1590568929,N
0,2049432,-12.0479,-2.2923,1.4836,55.4400,6.4400,75.7400,999.6078,-9.1826,-2.9306,1.8060,1590568929,N
0,2044197,-9.5163,-2.5053,3.7639,48.9300,37.7300,74.5500,999.6094,-9.4574,-1.9844,1.6701,1590568929,N
0,2040408,-12.1149,-1.1462,4.4865,29.9600,-39.2000,-27.4400,999.6107,-9.2280,-2.2356,2.4527,1590568929,N
0,2043314,-7.1402,-7.7432,5.5059,-165.6200,-85.5400,-94.6400,999.6115,-8.0839,-4.4677,3.2956,1590568929,N
0,2043740,-7.0086,-7.9681,5.2355,78.6800,-44.5200,-152.2500,999.6113,-6.7910,-5.6002,4.3232,1590568929,N
0,2047329,-5.5370,-13.1079,2.1248,109.9000,56.7700,-219.3100,999.6111,-5.6103,-6.6967,4.4553,1590568929,N
0,2050573,-5.1613,-12.3494,0.3972,152.6700,131.3200,-285.0400,999.6109,-6.7024,2.3236,6.7711,1590568930,N
0,2054293,-7.2168,-5.7595,1.5673,57.0500,105.8400,-286.1600,999.6106,-7.6236,2.4411,5.6649,1590568930,N
0,2054313,-20.8774,1.5386,3.2973,-244.9300,-200.4100,-364.5600,999.6107,-6.1949,-2.9439,7.0091,1590568930,N
0,1857138,-0.2752,-8.0375,3.7878,-147.2800,123.8300,90.4400,999.6105,-5.5484,-5.2648,6.1374,1590568930,N
0,1868413,3.0485,-13.2036,0.7035,19.2500,84.0700,42.3500,999.6097,-6.5517,-4.6768,5.6011,1590568930,N
0,1878221,1.1677,-9.0568,2.6536,21.9100,51.5900,9.9400,999.6083,-4.9358,-5.5397,6.4125,1590568930,N
0,1894341,-0.5480,-13.2299,2.7876,146.5100,-19.2500,-6.0900,999.6064,-4.6684,-3.5229,7.8718,1590568930,N
0,1915663,1.1653,1.2156,7.5589,73.6400,27.3000,8.2600,999.6052,-4.4535,-1.6162,8.5863,1590568930,N
0,1924169,-0.9811,-10.9017,2.9049,-121.0300,-0.5600,18.9700,999.6036,-3.6169,-4.0772,8.1526,1590568930,N
0,1916553,-0.4786,-11.6722,5.1685,-90.9300,31.0800,15.4700,999.6016,-2.9345,-5.8562,7.2982,1590568930,N
0,1916212,-1.2084,-9.5904,1.3639,68.5300,-0.0700,13.4400,999.5983,-3.1615,-5.5153,7.4671,1590568931,N
0,1918593,-0.0431,-8.7482,2.3234,6.0900,-21.0700,-5.3200,999.5955,-2.1476,-6.0084,7.4469,1590568931,N
0,1903121,-1.3113,-9.0808,3.9482,-10.4300,19.5300,3.5000,999.5942,-2.0469,-6.4224,7.1227,1590568931,N
0,1909188,-1.4429,-8.8223,2.7517,-30.0300,19.3900,4.2700,999.5931,-1.9196,-7.4078,6.1328,1590568931,N
0,1933795,-2.0818,-10.4710,3.9410,15.1900,22.4700,16.3100,999.5919,-0.9337,-9.4529,2.4376,1590568931,N
0,1960145,-4.7474,-8.7338,4.3286,-6.0900,-45.9900,3.8500,999.5901,-1.2419,-9.3324,2.7449,1590568931,N
0,1971910,-4.8790,-8.3749,4.0367,-25.3400,-97.2300,16.5900,999.5887,-1.7596,-9.0719,3.2825,1590568931,N
0,1972077,-3.7831,-6.1543,1.6702,143.6400,-158.5500,55.2300,999.5876,-2.1931,-7.6899,5.6768,1590568931,N
0,1968876,-3.8548,-5.8840,2.0004,-26.8100,-134.1200,206.1500,999.5864,-3.0397,-6.6254,6.5601,1590568931,N
0,1967849,-4.7761,-12.5504,2.1344,-11.1300,-86.7300,204.1200,999.5848,-3.9065,-6.1667,6.5484,1590568931,N
0,1967418,-5.2929,-10.1767,3.6849,36.6100,51.8700,165.9000,999.5838,-5.2631,-5.4519,6.2247,1590568932,N
0,1967811,-7.8748,-8.4849,6.5635,127.8900,65.9400,39.6900,999.5829,-5.8851,-4.5804,6.3683,1590568932,N
0,1967469,-6.2501,-4.3717,6.9296,-68.4600,5.2500,-5.2500,999.5831,-5.9637,-4.8728,6.0713,1590568932,N
0,1965467,-6.0467,-6.2237,5.9916,-52.3600,-11.4100,-18.8300,999.5834,-5.7669,-5.4165,5.7943,1590568932,N
0,1962974,-7.0325,-5.1637,6.8818,19.0400,4.9000,-37.3100,999.5828,-5.6370,-5.4203,5.9174,1590568932,N
0,1958121,-6.8339,-4.2688,5.9270,2.3100,-29.0500,-37.1700,999.5820,-5.5053,-5.3543,6.0987,1590568932,N
0,1954334,-6.3266,-4.7210,5.1494,-44.7300,-53.9000,-8.1200,999.5814,-5.3999,-5.5489,6.0185,1590568932,N
0,1953361,-4.8670,-4.9603,4.4794,-109.4800,-52.7800,12.2500,999.5812,-5.2281,-6.1387,5.5815,1590568932,N
0,1952130,-2.4096,-7.5135,5.0130,-7.9800,-24.9200,33.2500,999.5817,-4.7810,-6.3508,5.7429,1590568932,N
0,1951818,-3.6275,-7.6187,5.4891,-21.0000,-13.7200,45.1500,999.5828,-4.7271,-6.4377,5.6904,1590568932,N
0,1951203,-3.1872,-6.9631,5.2857,33.8800,-5.6700,35.5600,999.5838,-4.6230,-6.2547,5.9731,1590568933,N
0,1950008,-4.1946,-5.0512,5.3049,32.4800,14.1400,37.0300,999.5847,-4.9307,-5.8391,6.1452,1590568933,N
0,1944782,-6.2094,-3.3858,4.4459,38.9200,8.1900,40.3200,999.5849,-5.4600,-5.2079,6.2639,1590568933,N
0,1935124,-8.9587,-1.0193,5.0536,58.1700,20.8600,63.4900,999.5858,-6.5103,-3.7419,6.3075,1590568933,N
0,1924001,-9.0808,-0.0933,5.2403,37.4500,-1.1200,43.8900,999.5869,-7.1209,-2.5663,6.2352,1590568933,N
0,1911124,-8.8917,-1.0217,2.0865,68.5300,27.5800,31.5000,999.5883,-7.8886,-1.8757,5.5156,1590568933,N
0,1902488,-11.6650,0.3900,2.9408,-13.9300,41.0200,11.2000,999.5897,-8.4212,-1.5096,4.7931,1590568933,N
0,1896792,-10.8203,-2.2181,9.0401,-87.0100,1.1200,17.9900,999.5908,-8.6253,-1.6630,4.3599,1590568933,N
0,1899375,-8.5256,-1.7803,5.5705,-14.7700,3.2200,-3.9900,999.5928,-8.5520,-1.7455,4.4707,1590568933,N
0,1900434,-8.4945,-1.1725,5.0321,-8.8900,5.5300,-2.7300,999.5956,-8.5649,-1.6650,4.4766,1590568933,N
0,1898952,-8.3246,-1.4620,5.0824,-7.9100,3.3600,-1.2600,999.5981,-8.5432,-1.6532,4.5223,1590568934,N
0,1897762,-8.3749,-1.3496,4.9268,-2.3100,6.8600,-1.7500,999.6026,-8.5451,-1.6043,4.5362,1590568934,N
0,1897442,-8.4227,-1.3807,4.7186,3.1500,7.3500,-8.5400,999.6077,-8.5104,-1.6053,4.6007,1590568934,N
0,1897707,-7.8963,-1.4859,4.3837,-1.9600,4.4100,-11.4800,999.6121,-8.4573,-1.6854,4.6695,1590568934,N
0,1898880,-9.0497,-1.8281,4.7833,-7.0700,2.2400,-3.5000,999.6164,-8.4794,-1.7365,4.6103,1590568934,N
0,1900736,-8.5017,-2.2636,4.8000,-7.9100,-2.1000,-1.0500,999.6204,-8.4491,-1.8646,4.6159,1590568934,N
0,1902141,-8.5878,-1.8544,4.6947,-1.1900,0.6300,6.7900,999.6246,-8.4928,-1.8114,4.5565,1590568934,N
82,1900737,-8.2481,-1.7492,4.7737,1.0500,8.6800,13.6500,999.6293,-8.5772,-1.6931,4.4424,1590568934,N
82,1896706,-8.9850,-1.6439,4.5153,11.4100,19.3900,15.1900,999.6328,-8.7356,-1.5055,4.1945,1590568934,N
82,1895364,-8.4036,-0.9691,4.0558,4.8300,12.0400,10.0800,999.6356,-8.8455,-1.3044,4.0282,1590568934,N
82,1895903,-9.2219,-1.2179,4.0391,12.8100,24.6400,5.3900,999.6379,-8.9591,-1.1815,3.8091,1590568935,N
82,1896938,-9.8776,-1.0600,4.0726,21.2100,36.5400,-0.4900,999.6390,-9.0513,-1.0629,3.6214,1590568935,N
82,1897438,-9.5545,-1.9095,3.9171,19.1100,22.0500,-24.5000,999.6390,-8.9313,-1.3260,3.8267,1590568935,N
82,1897573,-8.5974,-0.0407,7.8915,-2.3800,-28.9100,-25.9700,999.6389,-8.5071,-1.4254,4.6656,1590568935,N
82,1905584,-3.1681,-0.4116,10.2245,36.0500,-118.0200,-22.5400,999.6359,-6.6621,-1.2731,7.0828,1590568935,N
81,1909484,-6.2548,-4.1037,5.7811,-14.2100,-128.4500,5.4600,999.6322,-6.0621,-1.8826,7.4751,1590568935,N
83,1908896,-13.0935,-2.0339,-2.3402,-0.8400,48.5100,11.9000,999.6283,-7.4634,-2.1501,5.9871,1590568935,N
82,1908469,-11.2487,2.0387,5.0824,-101.3600,-18.7600,31.8500,999.6255,-8.0346,-1.9005,5.2918,1590568935,N
83,1902276,-7.5852,-2.0315,6.7884,30.3800,53.1300,0.2100,999.6252,-8.1222,-1.7519,5.2087,1590568935,N
83,1896614,-7.9537,-1.5864,5.3480,-3.8500,21.6300,3.9200,999.6260,-8.2535,-1.6852,5.0211,1590568935,N
83,1895496,-8.0542,-1.9741,5.4006,-4.7600,15.6800,2.8700,999.6274,-8.3028,-1.7216,4.9264,1590568936,N
83,1894846,-8.3797,-1.5051,5.0776,-0.6300,13.4400,4.4800,999.6298,-8.3979,-1.6308,4.7943,1590568936,N
83,1893548,-8.3773,-1.6798,4.9340,-9.0300,3.7100,7.3500,999.6335,-8.4655,-1.6100,4.6811,1590568936,N
83,1889460,-8.3940,-1.2682,4.8168,-5.4600,-2.1700,1.0500,999.6373,-8.4753,-1.5524,4.6829,1590568936,N
83,1886817,-8.2887,-1.8305,5.2786,-2.0300,-4.3400,-1.7500,999.6416,-8.3823,-1.6267,4.8230,1590568936,N
84,1884706,-8.4060,-1.3472,4.6899,2.9400,12.6700,6.3000,999.6457,-8.4951,-1.5061,4.6621,1590568936,N
83,1883572,-8.5113,-1.2706,4.6875,-0.5600,6.4400,-4.2000,999.6486,-8.5059,-1.4840,4.6495,1590568936,N
84,1884037,-8.5663,-1.6439,4.7809,-8.0500,-6.7200,-7.2800,999.6514,-8.4385,-1.5927,4.7356,1590568936,N
84,1885101,-8.2983,-1.7324,4.6995,-7.6300,-3.2900,-16.1000,999.6532,-8.3371,-1.7626,4.8535,1590568936,N
84,1885889,-8.4156,-2.3306,5.0297,-10.9200,1.5400,-13.3700,999.6542,-8.2659,-1.9870,4.8884,1590568936,N
84,1885929,-8.2217,-2.4885,4.8072,-7.5600,14.0700,-16.1700,999.6543,-8.2494,-2.2040,4.8228,1590568937,N
84,1887622,-8.6213,-2.9647,4.4818,-4.0600,15.4700,-26.5300,999.6536,-8.2213,-2.5107,4.7198,1590568937,N
84,1892453,-9.1214,-3.1035,4.4578,-6.0200,10.4300,-48.7900,999.6538,-8.0974,-2.9177,4.7000,1590568937,N
83,1896259,-8.8989,-4.4100,5.0058,-12.2500,20.5100,-55.8600,999.6545,-7.9165,-3.4456,4.6506,1590568937,N
84,1899692,-7.0540,-2.8211,6.4463,-7.1400,-51.9400,-57.6800,999.6529,-7.2184,-3.7431,5.4821,1590568937,N
84,1907106,-5.2283,0.8112,9.0592,-21.4200,-112.8400,55.3700,999.6495,-6.8339,-2.6779,6.5036,1590568937,N
84,1911368,-7.7049,-5.5035,4.0319,-71.8200,-118.0200,128.8700,999.6437,-7.1583,-2.8761,6.0545,1590568937,N
83,1916797,-10.1982,-5.3575,1.6965,-30.1700,-7.9800,93.3800,999.6385,-7.8510,-2.6256,5.2572,1590568937,N
84,1918871,-7.1833,-2.6345,-1.4022,-22.7500,44.9400,69.7900,999.6340,-8.6224,-2.3671,4.0275,1590568937,N
83,1915566,-8.1260,0.4068,5.1135,5.9500,36.1900,57.0500,999.6314,-9.1012,-1.0869,3.4867,1590568937,N
83,1908611,-8.1045,-1.9789,5.6542,2.7300,5.1800,-15.5400,999.6310,-8.9562,-1.3837,3.7474,1590568938,N
83,1904517,-8.0351,-2.2564,5.9127,-8.6800,-8.1900,-0.6300,999.6324,-8.7641,-1.6283,4.0878,1590568938,N
83,1902984,-7.8341,-2.2062,5.8720,-3.8500,-0.4200,-1.5400,999.6371,-8.6053,-1.7883,4.3498,1590568938,N
83,1902801,-7.9274,-2.0387,5.2857,-0.6300,1.2600,1.8900,999.6425,-8.5316,-1.8351,4.4738,1590568938,N
83,1904022,-7.9537,-1.9358,5.5107,-3.6400,-5.8800,1.6800,999.6468,-8.4255,-1.8710,4.6563,1590568938,N
84,1905579,-7.8820,-2.1248,5.7021,-6.5100,-7.5600,1.6800,999.6497,-8.2972,-1.9473,4.8513,1590568938,N
83,1906107,-7.7360,-2.2708,5.8600,-4.1300,1.5400,-2.6600,999.6516,-8.1752,-2.0476,5.0144,1590568938,N
84,1906167,-7.3412,-2.1440,5.7021,-3.4300,0.2100,0.4900,999.6534,-8.0731,-2.0972,5.1573,1590568938,N
84,1906746,-7.5470,-2.3521,5.3432,-1.5400,7.8400,14.5600,999.6544,-8.1345,-2.0622,5.0742,1590568938,N
84,1905250,-7.8652,-2.2014,5.4341,16.1000,25.3400,30.1700,999.6542,-8.3488,-1.8003,4.8195,1590568938,N
84,1904468,-8.6859,-1.2275,5.2881,5.5300,7.8400,65.8000,999.6543,-8.7800,-1.1540,4.2131,1590568939,N
84,1908351,-9.0018,-0.0694,5.4867,36.4000,35.2100,72.4500,999.6550,-9.3714,-0.1927,2.8826,1590568939,N
83,1914309,-10.3872,0.8279,4.7641,30.8700,74.5500,117.5300,999.6581,-9.7381,1.1076,-0.3364,1590568939,N
84,1920711,-13.2467,2.1368,4.4219,33.3900,111.0900,141.4000,999.6608,-9.1540,2.0524,-2.8569,1590568939,N
84,1918668,-13.8186,5.4604,5.4509,-37.8700,-79.1700,113.4000,999.6622,-6.9572,2.1818,6.5580,1590568939,N
83,1922035,-2.4359,9.5809,-7.0373,-76.5800,-16.8000,91.8400,999.6589,-8.5214,3.8100,-3.0066,1590568939,N
84,1921427,-2.6393,5.6518,3.0126,-12.3900,50.7500,214.7600,999.6493,-6.2370,4.5902,6.0167,1590568939,N
84,1921602,-3.3069,6.0945,5.1254,-95.3400,62.5100,174.6500,999.6437,-5.5672,5.0347,6.3109,1590568939,N
84,1927062,1.7539,7.6905,9.2554,-147.7700,3.9200,173.8100,999.6393,-7.0644,-5.6654,-3.7641,1590568939,N
84,1933484,3.1537,1.1868,8.7482,11.9700,-77.6300,148.5400,999.6351,-8.3916,-5.0295,0.6749,1590568939,N
83,1938596,4.5823,2.9671,7.0038,-51.0300,-124.1100,120.8900,999.6306,-6.4441,-3.0005,6.7558,1590568940,N
83,1933563,11.3324,1.3304,3.6251,27.0200,-113.4700,13.0200,999.6256,-0.4992,-0.0396,9.7939,1590568940,N
83,1934493,7.5996,5.0249,3.4672,42.4200,-101.2200,-97.8600,999.6207,2.5659,2.4782,9.1348,1590568940,N
83,1941654,4.3214,4.8215,1.5051,26.1800,-137.9700,-111.7200,999.6169,4.1394,4.4552,7.6933,1590568940,N
82,1944836,5.1135,7.3890,-2.7159,46.4800,-109.9000,-92.1900,999.6122,5.3070,6.5207,5.0484,1590568940,N
82,1945506,3.5294,9.3535,-3.8237,37.7300,-61.8100,-94.4300,999.6085,5.4877,7.5705,2.9568,1590568940,N
82,1946475,1.2443,8.1188,-4.9890,-136.7800,-1.0500,-60.9700,999.6062,-3.0167,8.9339,2.6936,1590568940,N
82,1948104,0.2704,11.2606,-2.7182,0.7700,11.6900,-58.1000,999.6044,-3.3229,8.8981,2.4397,1590568940,N
81,1949702,0.6508,10.5954,-1.0935,-304.5700,40.6700,-12.1800,999.6046,-3.5837,8.1753,4.0610,1590568940,N
82,1949957,-0.0790,8.3677,3.9147,-141.1900,37.2400,-37.7300,999.6068,4.6217,7.5928,4.1424,1590568940,N
82,1956883,-0.3589,8.3916,7.5709,-118.6500,39.4100,-25.3400,999.6080,6.0060,-2.5301,7.3278,1590568941,N
83,1963602,-0.5025,6.4702,7.6379,-48.3000,27.5100,-26.6000,999.6087,4.9189,-1.8076,8.2890,1590568941,N
83,1969541,-2.5149,6.5563,8.1117,-23.3800,22.6100,-9.8000,999.6088,3.7607,-1.0040,9.0011,1590568941,N
83,1976115,-2.5244,5.3719,7.2000,-9.3100,4.7600,-4.9700,999.6080,2.7411,-0.2466,9.4125,1590568941,N
83,1980057,-2.2181,5.6447,7.8867,-7.5600,0.3500,-6.0200,999.6077,1.8885,0.4340,9.6133,1590568941,N
84,1982876,-1.8855,5.3647,7.6642,0.9800,-4.7600,0.4200,999.6060,1.2077,1.1315,9.6660,1590568941,N
83,1984003,-1.9980,5.5274,7.8509,3.5000,-7.0700,0.3500,999.6049,0.6198,1.8921,9.6024,1590568941,N
83,1985003,-1.5960,5.9318,7.4058,14.7000,-16.8700,2.2400,999.6033,0.2553,2.5746,9.4592,1590568941,N
84,1987396,-1.1725,7.3101,6.6497,-8.2600,-1.9600,-8.6800,999.6014,-0.1079,3.2777,9.2420,1590568941,N
85,1989805,-2.7900,7.2909,8.3605,-85.9600,23.8000,-11.7600,999.6006,-0.5554,3.3499,9.2000,1590568941,N
84,1993155,-2.8834,3.4385,9.3727,-67.4100,3.2200,-22.8200,999.6000,-0.9743,2.9675,9.2960,1590568942,N
85,1995781,-1.8185,2.6800,9.0473,-44.1700,-1.6800,-4.1300,999.5998,-1.0656,2.5538,9.4081,1590568942,N
85,1997934,-2.8499,0.9452,9.9326,-42.0700,7.9800,25.9000,999.5992,-1.3203,2.0090,9.5074,1590568942,N
85,1999287,-2.2875,3.0580,8.7338,-31.9200,-10.5000,5.3900,999.5974,-1.3436,1.9234,9.5218,1590568942,N
85,2001300,-2.2947,1.4070,9.3535,-60.9000,-10.7800,0.4200,999.5953,-1.2230,1.2273,9.6524,1590568942,N
85,2003761,-1.6630,-1.1701,9.4851,-76.3000,-14.0000,12.8800,999.5934,-3.2392,1.0636,9.1949,1590568942,N
85,2006252,-1.7731,-1.4620,9.9996,-40.9500,-5.0400,14.7000,999.5920,-4.4819,0.5976,8.7021,1590568942,N
85,2009265,-0.6054,-2.1320,10.5045,-37.0300,-15.4000,10.9200,999.5904,-5.5096,-0.0999,8.1120,1590568942,N
86,2015633,-2.6847,-1.6989,9.8560,14.4900,-23.4500,26.4600,999.5891,-5.7375,-0.2986,7.9475,1590568942,N
85,2021429,-2.1535,-1.6750,9.7196,32.6900,-56.4900,38.7800,999.5877,-5.1407,-0.4261,8.3404,1590568942,N
85,2024283,1.1127,-0.9452,8.9324,194.3200,-158.1300,29.2600,999.5861,-2.8918,0.5730,9.3531,1590568943,N
85,2005566,9.1238,3.7113,6.7765,48.1600,-41.9300,43.9600,999.5848,-1.4451,1.3166,9.6098,1590568943,N
86,1992806,3.1322,3.7304,8.4347,98.9800,6.3700,11.0600,999.5836,-0.6595,2.2211,9.5290,1590568943,N
85,1994951,2.7254,4.6493,8.4299,65.8000,2.1700,-7.0700,999.5833,-0.1688,2.7070,9.4241,1590568943,N
85,1993199,4.3334,2.7541,8.7553,-11.4100,16.3800,34.8600,999.5828,0.8721,1.9216,9.5769,1590568943,N
85,1990097,3.6730,2.8331,8.5878,-36.5400,19.1100,38.7100,999.5825,1.4723,0.5903,9.6775,1590568943,N
85,1986729,4.3119,1.6295,8.7936,-0.6300,-14.4900,-2.8000,999.5832,1.8961,-1.0284,9.5665,1590568943,N
85,1988471,3.8046,3.3619,8.5854,-6.3000,2.8700,-9.5900,999.5834,1.3832,6.5238,7.1900,1590568943,N
85,1988557,3.2064,2.3713,8.9707,-15.5400,8.4700,-10.2200,999.5826,1.8975,5.3387,8.0043,1590568943,N
85,1985607,3.4098,3.1657,9.0066,-13.4400,-0.5600,-1.6100,999.5821,2.2210,4.5532,8.3968,1590568943,N
85,1982435,3.3332,2.1942,9.1382,-0.9800,3.0100,0.4200,999.5810,2.4431,3.8372,8.6878,1590568944,N
85,1980941,3.5438,2.3402,8.8917,-3.5700,4.8300,-2.3800,999.5803,2.5961,3.3964,8.8258,1590568944,N
84,1980014,3.5605,2.0530,9.0473,19.9500,9.1000,-13.2300,999.5803,2.7090,3.2337,8.8530,1590568944,N
84,1980488,2.9767,2.9815,9.1023,47.8100,6.2300,-27.7200,999.5806,2.7388,3.6127,8.6958,1590568944,N
84,1985059,3.1322,3.9793,9.2459,64.3300,-32.4100,-15.6100,999.5806,3.0848,4.3130,8.2494,1590568944,N
84,1991049,3.2518,4.6253,8.6836,39.6200,-14.9800,-28.0000,999.5800,3.1486,4.7893,7.9574,1590568944,N
84,1993853,2.9862,4.2664,8.0088,-25.6200,-23.1000,-37.4500,999.5792,3.1228,4.7757,7.9756,1590568944,N
84,1995034,3.2710,5.3671,7.1043,-56.6300,-35.4200,-64.8200,999.5781,3.1136,4.9821,7.8520,1590568944,N
84,1995162,2.9049,4.8838,7.7527,-57.4700,-19.9500,-73.2200,999.5768,2.9050,5.0451,7.8916,1590568944,N
84,1997345,2.7422,8.0638,6.8411,59.5000,-14.0000,-17.9900,999.5756,2.8666,5.9544,7.2456,1590568944,N
84,2000948,3.3188,6.1328,7.0971,73.8500,24.5000,16.6600,999.5748,2.8907,6.2852,6.9506,1590568945,N
84,2004675,3.7543,2.9647,8.5926,-14.2100,28.2800,7.0700,999.5742,3.0284,5.3311,7.6537,1590568945,N
84,2007751,3.1848,5.0441,7.7001,98.7000,69.9300,-31.2900,999.5742,2.5911,5.8218,7.4541,1590568945,N
84,2010187,0.4953,4.9914,5.6303,104.9300,64.4700,-37.6600,999.5748,1.8376,6.4404,7.1634,1590568945,N
84,2010572,-0.9117,9.3392,4.3023,102.2700,52.2200,-32.9000,999.5752,0.8532,6.7510,7.0616,1590568945,N
84,2008954,-3.0485,8.9563,1.2491,108.5700,33.1100,-6.2300,999.5748,-0.4206,7.1649,6.6826,1590568945,N
84,2009178,-3.4074,9.4277,0.9978,70.9100,-31.3600,20.1600,999.5750,-0.5140,9.0894,3.6454,1590568945,N
84,2008731,-1.7970,8.9803,-0.4786,70.1400,-114.5200,10.0800,999.5763,-0.0138,9.8010,0.3316,1590568945,N
84,2007818,0.5240,10.3561,-2.0770,42.8400,-132.5100,-20.0900,999.5790,0.0074,9.7941,-0.4954,1590568945,N
83,2006949,-0.1675,7.9466,-3.5964,64.6100,-64.1900,-50.6100,999.5821,-0.4653,9.7559,0.8807,1590568945,N
83,2009359,-3.6538,9.4875,-5.0393,176.9600,-15.4000,-58.1000,999.5851,-0.9561,9.7174,-0.9100,1590568946,N
83,2010381,-4.3525,9.7531,-5.7906,41.2300,6.3700,-12.3900,999.5893,-0.9812,9.5873,-1.8141,1590568946,N
83,2008627,-2.8690,7.6427,-4.3406,-20.7200,12.1100,9.3800,999.5934,-0.6386,9.5153,-2.2853,1590568946,N
83,2008117,-2.7278,7.8221,-3.7400,-7.4900,5.4600,2.5900,999.5974,-0.2015,9.4829,-2.4908,1590568946,N
83,2006839,-3.2542,8.6213,-5.3910,-12.8100,0.2100,4.0600,999.6027,0.4164,9.4373,-2.6334,1590568946,N
83,2005590,-3.6921,9.2172,-6.1280,-80.2200,2.8700,21.4900,999.6077,0.6532,9.5615,-2.0789,1590568946,N
83,2003873,-3.3882,9.5234,-4.5966,-25.2700,1.1900,57.3300,999.6124,1.6399,9.4625,-1.9852,1590568946,N
83,2002368,-1.9119,7.6762,-2.8834,-70.6300,10.4300,85.1200,999.6176,2.9047,9.2629,-1.3898,1590568946,N
83,1999238,0.7825,8.3414,0.8734,-129.7100,28.7700,72.0300,999.6223,0.6117,9.7869,-0.1109,1590568946,N
83,1993137,3.1585,7.2263,3.3954,-188.3700,15.0500,46.2000,999.6259,-6.4584,5.2187,5.2178,1590568946,N
83,1988953,2.9264,6.8148,6.8937,-111.3000,21.7700,-5.5300,999.6288,-5.2952,3.2745,7.5768,1590568947,N
83,1990938,1.7109,7.5924,7.8628,-31.2900,10.3600,-21.7000,999.6304,-4.7027,2.8231,8.1293,1590568947,N
83,1991706,0.5240,7.6140,5.8074,-7.2800,6.5800,-0.9100,999.6309,-3.6117,3.1784,8.5454,1590568947,N
83,1992099,0.8327,7.1019,6.5085,-8.7500,2.5200,-0.0700,999.6291,-2.7336,3.1348,8.8809,1590568947,N
83,1992640,1.5362,7.9633,5.7523,-8.7500,-12.8100,-12.3200,999.6266,-1.7962,3.3041,9.0569,1590568947,N
82,1993880,0.6867,7.3484,5.7715,-29.2600,1.8200,-11.5500,999.6242,-1.3599,3.0246,9.2289,1590568947,N
83,1995285,0.5121,7.3651,6.4726,-44.8700,1.9600,-1.9600,999.6223,-1.0514,2.5231,9.4180,1590568947,N
82,1995228,0.6724,6.4439,7.2311,-62.1600,-1.6100,16.7300,999.6194,-0.7285,2.0233,9.5680,1590568947,N
82,1994825,1.0552,5.0776,7.9801,-49.6300,-0.2100,27.3700,999.6172,-0.3560,2.2070,9.5484,1590568947,N
83,1996105,1.8855,3.6682,9.3057,-36.3300,-2.6600,22.7500,999.6145,0.1348,2.6757,9.4336,1590568947,N
82,1997545,1.6199,3.9123,9.1262,-16.2400,-4.6900,-4.3400,999.6115,0.4473,2.9618,9.3380,1590568948,N
82,2000005,1.7922,3.8333,9.0209,-19.2500,-0.0700,11.4800,999.6079,0.7195,3.0579,9.2899,1590568948,N
83,2001618,2.0243,2.7302,9.3057,4.3400,1.5400,-0.0700,999.6049,0.9836,3.1001,9.2516,1590568948,N
83,2001819,1.6295,4.0152,9.1980,17.7800,-4.2700,1.3300,999.6017,1.1722,3.4486,9.1051,1590568948,N
83,1997453,2.0554,4.2999,8.7338,28.9100,-13.1600,-6.4400,999.5992,1.4786,4.0085,8.8270,1590568948,N
83,1991067,2.1344,5.2235,7.8197,19.8800,-12.6000,-8.8900,999.5966,1.7219,4.5873,8.4948,1590568948,N
83,1987249,2.1320,4.7880,8.4873,14.9800,-5.2500,-7.5600,999.5940,1.8276,4.8078,8.3496,1590568948,N
83,1984510,2.3569,4.9220,8.1906,14.5600,-8.2600,-6.5100,999.5918,1.9815,5.0338,8.1795,1590568948,N
83,1983359,2.1416,5.3623,7.8748,8.1900,-4.9700,-3.2200,999.5899,2.0453,5.2161,8.0486,1590568948,N
82,1983222,2.1727,5.3862,7.9155,4.3400,-3.2200,0.7000,999.5884,2.0974,5.2980,7.9814,1590568948,N
83,1983731,2.2875,5.1733,8.0207,6.9300,1.0500,5.1100,999.5876,2.1524,5.2901,7.9720,1590568949,N
83,1983245,2.2899,5.1039,7.8485,39.8300,-0.8400,4.1300,999.5869,2.2414,5.5428,7.7733,1590568949,N
82,1978190,2.3785,5.5202,7.5398,106.3300,-13.1600,-8.6800,999.5865,2.3802,6.3945,7.0438,1590568949,N
83,1973182,1.9478,7.6570,4.2473,251.8600,-43.3300,-1.4000,999.5864,2.4720,8.3272,4.5517,1590568949,N
82,1968398,3.4457,9.9589,0.2512,184.3100,-46.2700,10.7800,999.5856,2.4430,9.3357,1.7456,1590568949,N
82,1962535,3.8285,8.6285,-1.7659,38.7100,-38.1500,-6.3000,999.5848,2.1480,9.5559,0.4908,1590568949,N
82,1959551,2.4191,8.7506,-1.9980,34.3700,-24.5000,-24.7100,999.5850,0.9743,9.7455,-0.4964,1590568949,N
82,1957060,1.8616,9.8225,-3.1202,21.0000,-17.0800,-21.9800,999.5856,-1.4651,9.6379,-1.0648,1590568949,N
82,1955680,1.4740,9.5067,-3.5270,2.1000,-3.9200,-1.4000,999.5866,4.8733,8.4125,-1.2847,1590568949,N
82,1953726,2.0961,8.8678,-3.0700,0.2800,4.8300,8.8900,999.5889,3.9139,8.8321,-1.6867,1590568949,N
82,1947710,2.0315,8.9611,-2.3928,10.9900,3.5000,-2.6600,999.5924,3.4062,8.9918,-1.9275,1590568950,N
81,1941623,2.0602,9.1597,-2.7876,1.8900,-3.7800,-0.7000,999.5967,3.0077,9.0930,-2.1074,1590568950,N
82,1938209,1.9549,9.0138,-3.1633,-1.8200,-4.8300,1.1900,999.6002,2.7291,9.1366,-2.2904,1590568950,N
82,1935912,1.8760,8.9635,-3.2399,-0.2100,3.3600,0.4200,999.6034,2.5518,9.1456,-2.4530,1590568950,N
81,1934265,1.9884,9.1908,-2.9169,1.1200,9.6600,7.6300,999.6066,2.5173,9.1292,-2.5478,1590568950,N
81,1933308,2.3737,9.1214,-2.6967,-5.9500,7.7000,11.6900,999.6101,2.5788,9.1118,-2.5487,1590568950,N
81,1932937,2.3952,8.7147,-2.5340,-2.3800,3.3600,4.4100,999.6139,2.5980,9.1045,-2.5552,1590568950,N
81,1932931,2.5340,8.9707,-2.6895,-3.6400,1.1200,-0.9800,999.6158,2.5712,9.1133,-2.5509,1590568950,N
81,1929569,2.3282,9.1214,-2.5125,-2.4500,2.5900,-0.7700,999.6176,2.5151,9.1381,-2.5180,1590568950,N
81,1924819,2.5029,9.1549,-2.6512,-4.6200,2.2400,1.4000,999.6196,2.5099,9.1435,-2.5034,1590568950,N
81,1922391,2.4885,9.0688,-2.4407,-0.2800,0.0700,0.0700,999.6218,2.5100,9.1463,-2.4932,1590568951,N
81,1921930,2.4933,9.2028,-2.4718,-7.2800,1.0500,2.9400,999.6234,2.5039,9.1637,-2.4348,1590568951,N
81,1922071,2.5340,9.1645,-2.3809,-2.9400,3.0800,4.6200,999.6246,2.5442,9.1593,-2.4093,1590568951,N
81,1922735,2.6967,9.1334,-2.3713,-3.1500,6.0200,6.0200,999.6251,2.6252,9.1435,-2.3822,1590568951,N
81,1924015,2.8666,8.9468,-2.2493,0.0700,8.7500,8.8200,999.6258,2.7749,9.1020,-2.3715,1590568951,N
81,1925185,2.9360,9.0185,-2.0363,-2.7300,9.5200,5.9500,999.6266,2.8740,9.0943,-2.2812,1590568951,N
80,1925299,3.0676,8.8726,-1.8353,-1.1200,5.1800,3.2900,999.6281,2.9624,9.0888,-2.1883,1590568951,N
81,1921089,3.1633,9.2076,-2.0124,-3.3600,3.7800,-3.4300,999.6302,2.9580,9.1104,-2.1025,1590568951,N
80,1918111,2.8762,8.7936,-1.8497,-6.1600,3.2900,1.1900,999.6312,2.9508,9.1332,-2.0117,1590568951,N
81,1916747,3.3236,8.8534,-1.9167,-2.7300,1.4700,2.8000,999.6317,3.0456,9.1086,-1.9821,1590568951,N
80,1915747,3.1920,9.0927,-1.5482,-2.5900,3.4300,-2.3800,999.6324,3.0517,9.1319,-1.8614,1590568952,N
80,1915633,2.8164,9.2052,-1.4357,-2.8000,-0.3500,-2.1000,999.6324,2.9759,9.1790,-1.7496,1590568952,N
80,1916088,3.2614,8.8702,-1.9454,-7.2800,-7.9800,-0.3500,999.6329,2.9741,9.1791,-1.7520,1590568952,N
80,1916965,2.9504,9.2483,-1.8616,-13.5800,4.3400,-2.6600,999.6339,2.8697,9.2321,-1.6442,1590568952,N
80,1918402,2.8786,9.2100,-1.6917,-5.6000,11.9700,8.4700,999.6348,2.9386,9.2177,-1.6027,1590568952,N
79,1916573,3.5773,8.4179,-1.0146,-9.0300,12.0400,8.5400,999.6356,3.1277,9.1850,-1.4225,1590568952,N
80,1912222,3.2614,9.3153,-0.4307,-0.6300,7.8400,-4.6900,999.6362,3.1190,9.2212,-1.1879,1590568952,N
80,1910529,3.0556,9.2818,-0.7059,-8.8900,-1.0500,-5.5300,999.6369,2.9584,9.2952,-1.0087,1590568952,N
79,1911152,3.3117,9.5186,-0.8375,-8.2600,-4.4800,-3.1500,999.6372,2.8616,9.3362,-0.9035,1590568952,N
79,1912782,3.0365,8.9300,-0.6078,-0.7700,-0.9800,0.3500,999.6373,2.8912,9.3327,-0.8439,1590568952,N
79,1914785,3.2423,9.2913,-0.5408,-9.8700,-2.7300,-2.2400,999.6374,2.7704,9.3810,-0.7013,1590568953,N
79,1917424,2.9073,9.2483,-0.2752,-10.7100,3.5000,3.2200,999.6371,2.6318,9.4326,-0.5196,1590568953,N
79,1920159,3.2614,9.0879,-0.2034,-21.0700,2.4500,3.0800,999.6369,2.2891,9.5318,-0.2733,1590568953,N
79,1923108,3.3691,9.1908,0.1196,-13.3000,3.5000,2.1700,999.6367,1.9057,9.6194,-0.0730,1590568953,N
79,1924355,3.1202,9.2148,0.3685,-7.7700,9.6600,3.9900,999.6371,1.1412,9.7395,0.1021,1590568953,N
79,1922644,2.7015,9.3990,0.3517,-12.6000,11.9000,2.5200,999.6373,-0.9901,9.7532,0.2552,1590568953,N
79,1922047,3.5797,9.2937,0.9643,-19.5300,5.2500,13.3000,999.6379,5.6607,7.9945,0.4636,1590568953,N
79,1922530,3.3212,8.9324,1.3472,26.1100,-1.4000,-13.3700,999.6384,3.8721,8.9963,0.4931,1590568953,N
79,1922514,4.9460,7.8748,1.1462,-4.7600,-5.6700,-4.5500,999.6384,4.3108,8.7846,0.6462,1590568953,N
79,1922915,2.3785,9.3535,0.5336,-6.2300,3.0100,-32.3400,999.6371,3.6861,9.0623,0.6772,1590568953,N
79,1926254,2.4311,10.2461,0.3852,-26.6700,8.1900,2.8700,999.6360,3.8561,8.9780,0.8346,1590568954,N
78,1928535,2.9671,8.1763,1.3017,29.1900,24.0800,23.4500,999.6349,3.1876,9.2461,0.7204,1590568954,N
78,1930708,1.3687,9.9876,0.0167,23.5900,25.2000,33.1800,999.6336,2.6306,9.4376,0.4265,1590568954,N
78,1928950,6.7741,8.1332,-0.7944,-9.8700,-21.7700,70.3500,999.6333,3.7101,9.0726,0.3045,1590568954,N
78,1921499,5.3910,6.5611,0.3948,100.2400,20.0900,-5.3200,999.6331,1.3104,9.7032,-0.5482,1590568954,N
78,1917965,1.9836,7.2670,-2.9551,1.6100,-60.2700,-9.6600,999.6334,6.4191,7.3689,-0.8158,1590568954,N
78,1920722,1.3328,11.1625,-0.0096,-74.4100,-110.5300,5.0400,999.6337,3.2785,9.2277,-0.5213,1590568954,N
78,1922307,6.2405,10.9496,-0.6939,-77.0000,-5.3900,110.9500,999.6340,2.9917,9.3390,0.0580,1590568954,N
78,1920448,7.2072,5.2666,-0.1579,-37.5200,11.7600,83.8600,999.6345,3.6160,9.1130,0.2198,1590568954,N
78,1918760,6.8004,5.3097,-0.7370,-18.6200,46.4800,29.8200,999.6357,3.4899,9.1573,0.3672,1590568954,N
78,1921635,7.8556,6.6592,2.4861,-32.6200,65.5900,-2.3100,999.6367,8.0672,5.5008,0.9123,1590568955,N
78,1926364,6.2189,6.8602,3.4959,-83.5800,100.2400,17.1500,999.6373,7.2799,6.1274,2.3724,1590568955,N
78,1932967,6.6305,7.0469,7.6929,22.3300,27.3700,-0.4200,999.6385,6.8475,6.4210,2.8377,1590568955,N
78,1935798,6.9966,5.6112,5.6207,67.2700,-1.8900,-6.7900,999.6384,6.6283,6.5960,2.9546,1590568955,N
78,1937600,6.9176,6.1543,4.0032,102.9000,-8.6100,-28.2100,999.6370,6.1559,7.2018,2.5317,1590568955,N
78,1941455,5.2235,6.8315,1.9334,107.4500,-9.2400,-47.1100,999.6348,5.0748,8.2356,1.6098,1590568955,N
78,1942286,3.2638,7.1833,0.1507,98.7000,11.1300,-65.6600,999.6328,3.3354,9.2108,0.4538,1590568955,N
77,1944557,1.5817,8.4706,-0.8279,76.2300,3.6400,-58.2400,999.6312,1.3842,9.6873,-0.6403,1590568955,N
78,1943956,2.4215,9.6239,-2.8834,76.6500,-41.5800,-41.7900,999.6304,-1.5544,9.5621,-1.5232,1590568955,N
77,1937684,2.5125,9.5833,-5.8289,45.8500,-21.5600,-14.8400,999.6296,5.7770,7.6895,-1.9151,1590568955,N
77,1936669,1.4477,8.1380,-3.4457,43.6100,16.2400,-19.2500,999.6290,4.7152,8.1790,-2.6535,1590568956,N
78,1938584,0.4666,7.2048,-4.2162,21.4900,17.4300,-29.2600,999.6296,4.0361,8.4168,-3.0063,1590568956,N
78,1939498,-0.6437,7.9872,-4.4794,28.2800,-6.5100,-29.6800,999.6299,2.7075,8.7652,-3.4658,1590568956,N
78,1940314,0.4140,9.0760,-6.3841,-13.7900,-12.5300,-11.6200,999.6304,2.1802,8.9122,-3.4627,1590568956,N
78,1939783,1.8257,9.7866,-6.1352,-22.7500,27.6500,42.7000,999.6310,2.5104,8.8157,-3.4858,1590568956,N
78,1941974,2.3641,6.8650,-3.0628,-42.1400,23.3800,26.8100,999.6319,2.7330,8.8601,-3.1937,1590568956,N
78,1943865,2.0195,6.8387,-3.2877,37.8000,9.1000,-28.0700,999.6337,2.6269,8.7843,-3.4793,1590568956,N
78,1946006,0.4570,8.3940,-4.7306,8.1900,-2.5200,-40.4600,999.6348,1.8361,8.9677,-3.5184,1590568956,N
78,1947060,0.4379,8.8798,-5.8050,13.3700,-3.3600,-27.2300,999.6361,1.3431,9.0077,-3.6369,1590568956,N
78,1946017,-0.3948,8.4251,-5.0704,-21.5600,2.0300,-6.8600,999.6375,0.8825,9.1622,-3.3830,1590568956,N
78,1944904,0.0742,8.6357,-5.2427,11.7600,-2.8000,-1.9600,999.6388,0.7153,9.1199,-3.5336,1590568957,N
78,1944973,1.0169,9.1478,-4.5320,-3.1500,-4.2700,-4.2700,999.6407,0.7157,9.1133,-3.5505,1590568957,N
78,1945583,-0.1819,8.0040,-4.6158,-31.2900,11.6900,-3.7800,999.6425,0.4916,9.2622,-3.1845,1590568957,N
78,1946571,0.2177,8.9300,-4.0798,-1.6800,5.8100,-1.4700,999.6447,0.4306,9.2794,-3.1430,1590568957,N
78,1947336,0.1627,8.5448,-4.2018,13.0200,-1.1900,-0.7700,999.6473,0.3794,9.2302,-3.2910,1590568957,N
78,1948188,0.1795,8.7147,-4.8168,-4.6200,4.4100,-1.7500,999.6497,0.3339,9.2292,-3.2985,1590568957,N
79,1949141,0.0263,8.6931,-4.3956,-16.4500,4.1300,0.4200,999.6514,0.2743,9.2794,-3.1604,1590568957,N
78,1948248,0.0766,8.7194,-3.9769,-21.1400,3.5000,2.3100,999.6523,0.2500,9.3157,-3.0537,1590568957,N
78,1945911,0.4092,8.7529,-3.8333,9.5900,-1.4000,-0.2800,999.6528,0.2850,9.2289,-3.3041,1590568957,N
78,1944490,0.1866,8.5878,-4.2353,14.0700,-0.1400,-2.3100,999.6534,0.2542,9.1763,-3.4497,1590568957,N
78,1944095,0.1555,8.7051,-4.2879,7.7700,0.5600,-0.9800,999.6551,0.2314,9.1396,-3.5474,1590568958,N
78,1943898,0.1149,8.6142,-4.4100,-11.0600,2.0300,-0.9800,999.6567,0.2019,9.1753,-3.4559,1590568958,N
78,1944148,0.1292,8.8056,-4.2066,-10.5000,1.6800,0.0700,999.6579,0.1888,9.1891,-3.4199,1590568958,N
78,1945050,0.0814,8.7936,-3.7735,-11.0600,2.4500,0.3500,999.6586,0.1721,9.2250,-3.3228,1590568958,N
78,1946188,0.3470,8.7099,-3.9434,-18.4100,4.3400,2.5200,999.6591,0.2334,9.1868,-3.4231,1590568958,N
78,1945313,0.3781,9.0449,-3.6849,-3.2200,1.6800,-1.0500,999.6592,0.2565,9.1969,-3.3943,1590568958,N
77,1942434,0.0694,8.8128,-3.4744,-5.1100,2.8000,0.2100,999.6585,0.2247,9.2249,-3.3199,1590568958,N
77,1940441,0.1053,8.9611,-3.4361,-3.4300,-0.4200,2.1000,999.6578,0.2165,9.1831,-3.4343,1590568958,N
77,1940010,0.2776,8.9874,-3.4648,-0.4900,-0.2800,1.8200,999.6571,0.2437,9.1353,-3.5578,1590568958,N
77,1940370,0.1149,9.0377,-3.3021,-0.4900,1.8900,1.8200,999.6562,0.2359,9.1252,-3.5839,1590568958,N
77,1941243,0.3781,9.0114,-3.4672,-8.6100,1.7500,3.9200,999.6553,0.2972,9.1006,-3.6417,1590568959,N
77,1942613,0.1364,8.8989,-3.3452,11.3400,2.3800,3.0100,999.6550,0.2966,9.0309,-3.8112,1590568959,N
77,1944369,-0.5886,7.2814,-3.1346,62.1600,1.9600,2.0300,999.6541,0.2096,8.6840,-4.5513,1590568959,N
77,1945372,0.2010,8.2217,-4.1539,37.5200,-23.1700,5.5300,999.6533,0.1607,7.2347,-6.6184,1590568959,N
76,1942624,1.7133,9.2219,-6.2620,36.1900,-41.5800,10.4300,999.6529,0.0905,5.3944,-8.1892,1590568959,N
77,1940048,-0.0287,7.1809,-6.1950,63.5600,-20.5800,3.2900,999.6525,-0.1006,3.8974,-8.9984,1590568959,N
77,1940412,-0.3829,7.3795,-5.8098,31.4300,-42.5600,12.8100,999.6523,-0.4345,3.0284,-9.3172,1590568959,N
77,1941692,-0.7059,6.7980,-5.6423,-18.2700,-63.6300,7.1400,999.6530,-0.8803,3.3779,-9.1643,1590568959,N
76,1943092,-1.6869,6.5324,-5.7093,-33.0400,-62.5800,-20.6500,999.6533,-0.9622,8.5798,-4.6510,1590568959,N
77,1944523,-3.1490,5.2164,-8.7386,95.6200,-41.8600,-22.3300,999.6537,-1.8975,7.2030,-6.3787,1590568959,N
77,1944636,-3.3643,4.3525,-9.3272,15.5400,7.4900,-10.2900,999.6545,-2.1419,6.5542,-6.9732,1590568960,N
77,1944757,-3.3117,5.6758,-7.3699,-30.7300,6.9300,6.0200,999.6552,-2.3126,6.5470,-6.9253,1590568960,N
76,1941484,-2.3617,5.9557,-6.3482,-26.7400,6.7900,4.6900,999.6565,-2.3043,6.7023,-6.7779,1590568960,N
76,1938471,-2.6106,6.3649,-6.2596,5.2500,-0.5600,0.0700,999.6577,-2.3963,6.6717,-6.7761,1590568960,N
76,1937034,-2.7972,6.2333,-7.0301,7.1400,-1.4000,-0.8400,999.6598,-2.4900,6.5351,-6.8748,1590568960,N
76,1935990,-2.8020,6.2716,-6.9464,-2.3800,1.6100,0.1400,999.6610,-2.5463,6.4946,-6.8926,1590568960,N
76,1934990,-2.6441,6.2477,-6.6425,-2.3800,1.3300,0.3500,999.6627,-2.5748,6.4978,-6.8790,1590568960,N
75,1934682,-2.7278,6.3075,-6.7525,1.6100,0.2800,-0.3500,999.6641,-2.6152,6.4684,-6.8914,1590568960,N
76,1934768,-2.7374,6.2812,-6.7621,-0.7000,0.4900,-0.1400,999.6652,-2.6481,6.4559,-6.8905,1590568960,N
75,1933229,-2.6704,6.2859,-6.7286,-0.3500,0.6300,0.2100,999.6665,-2.6605,6.4516,-6.8898,1590568960,N
75,1929171,-2.7517,6.2572,-6.7645,-0.5600,0.4900,0.2100,999.6677,-2.6861,6.4402,-6.8905,1590568961,N
76,1925807,-2.6584,6.2836,-6.7430,-0.7000,0.2100,0.0700,999.6688,-2.6911,6.4409,-6.8879,1590568961,N
76,1924240,-2.6871,6.3673,-6.7717,1.4000,0.1400,-0.2100,999.6699,-2.6977,6.4329,-6.8928,1590568961,N
75,1923292,-2.7661,6.2596,-6.7669,-0.4200,0.6300,-0.1400,999.6714,-2.7193,6.4215,-6.8949,1590568961,N
75,1922776,-2.6895,6.2166,-6.7860,0.3500,0.5600,0.1400,999.6733,-2.7220,6.4053,-6.9089,1590568961,N
75,1922610,-2.6943,6.2836,-6.8028,0.8400,0.4900,-0.1400,999.6752,-2.7234,6.3941,-6.9187,1590568961,N
76,1922886,-2.6967,6.2716,-6.7741,0.5600,0.0700,-0.1400,999.6772,-2.7289,6.3897,-6.9206,1590568961,N
75,1921704,-2.8092,6.2548,-6.7789,0.6300,0.8400,-0.0700,999.6799,-2.7503,6.3767,-6.9241,1590568961,N
75,1917954,-2.6967,6.2764,-6.7406,-0.8400,1.2600,-0.0700,999.6824,-2.7452,6.3846,-6.9189,1590568961,N
74,1915125,-2.7589,6.3051,-6.7741,-0.4900,3.0100,-0.8400,999.6854,-2.7446,6.3760,-6.9270,1590568961,N
75,1914103,-2.6441,6.2261,-6.6257,-10.2200,4.4100,0.6300,999.6873,-2.7192,6.4429,-6.8750,1590568962,N
75,1913469,-2.5819,6.3242,-6.6568,3.4300,0.7700,0.4200,999.6888,-2.6996,6.4321,-6.8927,1590568962,N
75,1913205,-2.6225,6.2859,-6.7310,3.1500,0.8400,0.2800,999.6893,-2.6905,6.4114,-6.9156,1590568962,N
74,1913319,-2.6369,6.4032,-6.7454,3.1500,0.0700,0.4200,999.6899,-2.6845,6.4101,-6.9191,1590568962,N
75,1913840,-2.5795,6.3458,-6.7334,1.8200,0.1400,0.4200,999.6905,-2.6713,6.4139,-6.9207,1590568962,N
74,1912415,-2.7039,6.2859,-6.9009,1.9600,0.4900,0.0700,999.6904,-2.6795,6.3857,-6.9436,1590568962,N
74,1909004,-2.6871,6.2859,-6.6855,-0.9100,0.4900,0.6300,999.6910,-2.6894,6.4055,-6.9215,1590568962,N
74,1907323,-2.5842,6.3553,-6.7502,0.2100,0.3500,0.4200,999.6906,-2.6743,6.4191,-6.9147,1590568962,N
74,1907151,-2.6824,6.2692,-6.7095,0.4200,0.0700,-0.4200,999.6904,-2.6910,6.4155,-6.9116,1590568962,N
74,1906999,-2.6465,6.2668,-6.8842,1.6100,-0.2800,-0.1400,999.6899,-2.6910,6.3924,-6.9330,1590568962,N
74,1907241,-2.6417,6.2524,-6.7047,-0.7000,0.4900,-0.1400,999.6898,-2.6941,6.4012,-6.9237,1590568963,N
74,1907611,-2.6177,6.3434,-6.7358,0.5600,0.1400,-0.0700,999.6902,-2.6887,6.4103,-6.9173,1590568963,N
73,1908171,-2.6034,6.2620,-6.7430,0.4900,0.0700,-0.0700,999.6898,-2.6848,6.4088,-6.9203,1590568963,N
74,1906984,-2.6800,6.3314,-6.7549,0.8400,-0.1400,-0.1400,999.6890,-2.6945,6.4098,-6.9155,1590568963,N
73,1903978,-2.6369,6.2548,-6.6975,0.7700,-0.0700,-0.1400,999.6879,-2.6988,6.4090,-6.9146,1590568963,N
74,1901769,-2.7302,6.3051,-6.7669,0.6300,0.2100,-0.1400,999.6874,-2.7138,6.4040,-6.9134,1590568963,N
73,1901150,-2.6225,6.3242,-6.7549,0.5600,0.4900,-0.1400,999.6870,-2.7038,6.4067,-6.9147,1590568963,N
74,1900972,-2.6847,6.2357,-6.8100,0.0700,0.3500,-0.0700,999.6865,-2.7091,6.3951,-6.9234,1590568963,N
73,1901025,-2.6656,6.2788,-6.7023,0.5600,0.4900,-0.0700,999.6865,-2.7117,6.3981,-6.9196,1590568963,N
73,1901519,-2.6871,6.2836,-6.8004,0.0700,0.7000,-0.0700,999.6859,-2.7126,6.3934,-6.9236,1590568963,N
74,1902721,-2.6273,6.3506,-6.7502,-1.0500,1.0500,0.2800,999.6846,-2.6984,6.4120,-6.9119,1590568964,N
74,1902941,-2.6608,6.3458,-6.6281,0.9800,0.4200,-0.1400,999.6835,-2.7034,6.4240,-6.8989,1590568964,N
73,1900819,-2.6417,6.3194,-6.7813,0.2100,0.4900,0.0700,999.6832,-2.6973,6.4223,-6.9028,1590568964,N
73,1899132,-2.6489,6.2572,-6.7238,0.2800,0.4900,0.1400,999.6835,-2.6981,6.4189,-6.9057,1590568964,N
74,1898660,-2.6943,6.3386,-6.7573,-0.1400,0.5600,-0.0700,999.6847,-2.7035,6.4220,-6.9006,1590568964,N
74,1898542,-2.6728,6.5683,-6.5587,-4.2000,-0.0700,-0.7700,999.6855,-2.7109,6.4947,-6.8294,1590568964,N
74,1899349,-2.5795,6.3745,-7.2814,3.4300,2.5200,-1.7500,999.6873,-2.6690,6.4049,-6.9299,1590568964,N
74,1899522,-2.4191,6.3960,-6.9607,-16.1000,11.6900,-1.7500,999.6884,-2.5711,6.4572,-6.9184,1590568964,N
74,1899378,-2.5962,6.5803,-6.3601,-27.8600,11.6200,-1.8200,999.6890,-2.5475,6.6442,-6.7480,1590568964,N
74,1898471,-2.2516,6.8674,-6.3075,-9.5900,3.3600,2.3800,999.6892,-2.4728,6.7756,-6.6443,1590568964,N
74,1895283,-2.5077,6.3266,-6.1472,29.5400,0.0700,-3.0100,999.6887,-2.5261,6.5743,-6.8240,1590568965,N
74,1892360,-2.3641,6.5348,-6.6233,21.2800,-1.1200,-0.2800,999.6878,-2.5081,6.4613,-6.9377,1590568965,N
73,1890957,-2.4861,6.1998,-7.0780,22.0500,-2.3100,-0.8400,999.6873,-2.5194,6.2801,-7.0981,1590568965,N
74,1890483,-2.4742,5.9605,-7.1833,0.6300,0.7700,0.4200,999.6863,-2.5124,6.2298,-7.1447,1590568965,N
73,1890298,-2.4120,5.6207,-7.3914,50.4700,-3.7800,-1.5400,999.6857,-2.5137,5.7997,-7.4977,1590568965,N
74,1891499,-2.5172,5.2499,-7.9466,-11.3400,10.1500,1.4000,999.6846,-2.4568,5.7230,-7.5751,1590568965,N
74,1893172,-2.3474,5.6901,-7.2479,-46.2000,18.2700,0.5600,999.6835,-2.3652,5.9833,-7.4011,1590568965,N
74,1894116,-2.0124,6.5276,-6.1878,-70.0000,10.2200,-8.8200,999.6823,-2.3409,6.5356,-6.9265,1590568965,N
74,1892381,-2.1846,8.6022,-5.8002,-70.9800,13.2300,3.5000,999.6818,-2.2324,7.2153,-6.2551,1590568965,N
74,1890276,-1.8568,7.4680,-5.1470,16.9400,-0.2100,0.7700,999.6814,-2.1886,7.2608,-6.2179,1590568965,N
74,1889736,-2.1296,7.6642,-5.8600,7.0700,-2.4500,0.2100,999.6807,-2.1879,7.3016,-6.1701,1590568966,N
74,1889224,-2.3450,7.4680,-5.6447,-2.1700,0.2100,0.1400,999.6803,-2.2274,7.3784,-6.0637,1590568966,N
74,1888488,-2.1392,7.5972,-5.7284,-4.9700,-0.4200,0.7000,999.6796,-2.2101,7.4648,-5.9634,1590568966,N
74,1888322,-2.1799,7.5852,-5.4054,-6.9300,0.0700,0.6300,999.6795,-2.2107,7.5721,-5.8264,1590568966,N
74,1888111,-2.1631,7.6044,-5.4724,-5.6700,1.0500,0.2800,999.6799,-2.2023,7.6390,-5.7416,1590568966,N
74,1887457,-2.1464,7.6427,-5.2857,-2.8000,0.2100,0.6300,999.6798,-2.1985,7.7027,-5.6573,1590568966,N
74,1883718,-2.0794,7.7767,-5.3695,-2.9400,1.2600,0.0700,999.6783,-2.1741,7.7508,-5.6008,1590568966,N
74,1879394,-2.1176,7.7073,-5.2451,-2.0300,0.9800,0.1400,999.6773,-2.1686,7.7913,-5.5465,1590568966,N
74,1876882,-2.1320,7.8293,-5.2522,-0.5600,0.7700,-0.1400,999.6761,-2.1657,7.8224,-5.5037,1590568966,N
74,1875067,-2.1200,7.7001,-5.2810,1.4000,0.5600,0.1400,999.6747,-2.1649,7.8273,-5.4969,1590568966,N
74,1873529,-2.1033,7.7312,-5.1900,1.5400,0.6300,0.0700,999.6739,-2.1627,7.8413,-5.4779,1590568967,N
74,1872694,-2.1511,7.7145,-5.2881,3.2900,0.6300,0.2100,999.6725,-2.1684,7.8321,-5.4888,1590568967,N
74,1872201,-2.1081,7.6857,-5.3551,2.0300,-0.2100,0.2100,999.6721,-2.1662,7.8268,-5.4972,1590568967,N
74,1871813,-2.1392,7.6977,-5.4796,3.3600,0.6300,0.2100,999.6717,-2.1646,7.8016,-5.5335,1590568967,N
74,1869421,-2.1464,7.6857,-5.5083,1.6100,0.8400,-0.1400,999.6714,-2.1646,7.7841,-5.5581,1590568967,N
74,1865676,-2.0483,7.6977,-5.4269,-0.8400,0.5600,-0.4200,999.6713,-2.1484,7.7940,-5.5505,1590568967,N
74,1863111,-2.1081,7.6762,-5.3432,0.4900,0.4900,-0.3500,999.6710,-2.1507,7.7996,-5.5418,1590568967,N
74,1861713,-2.1559,7.6499,-5.4939,2.3100,0.2800,0.2800,999.6707,-2.1569,7.7812,-5.5652,1590568967,N
74,1860570,-2.0913,7.6810,-5.4652,0.2100,0.3500,0.4900,999.6709,-2.1461,7.7858,-5.5629,1590568967,N
74,1859552,-2.0100,7.6666,-5.3360,0.6300,0.4900,0.2100,999.6714,-2.1268,7.7989,-5.5519,1590568967,N
74,1859168,-2.1535,7.6570,-5.5274,1.3300,0.4900,-0.4900,999.6728,-2.1395,7.7782,-5.5761,1590568968,N
74,1858869,-2.1057,7.6164,-5.4604,0.2100,0.1400,0.3500,999.6736,-2.1391,7.7783,-5.5761,1590568968,N
74,1857149,-2.1488,7.6594,-5.4724,0.8400,0.2800,0.1400,999.6732,-2.1463,7.7741,-5.5792,1590568968,N
74,1853339,-2.0794,7.6283,-5.4532,0.5600,0.2100,0.1400,999.6730,-2.1404,7.7742,-5.5813,1590568968,N
73,1850433,-2.1153,7.6499,-5.4796,0.3500,0.3500,0.1400,999.6729,-2.1405,7.7729,-5.5830,1590568968,N
74,1848741,-2.0794,7.5685,-5.5155,-0.1400,0.5600,-0.2100,999.6719,-2.1366,7.7636,-5.5975,1590568968,N
74,1847453,-2.0602,7.6522,-5.5107,0.1400,0.4900,0.0700,999.6714,-2.1257,7.7640,-5.6011,1590568968,N
74,1846554,-2.1057,7.6140,-5.4652,-0.1400,0.6300,0.1400,999.6711,-2.1271,7.7655,-5.5985,1590568968,N
73,1845906,-2.1105,7.6164,-5.4437,-0.7700,0.8400,0.1400,999.6704,-2.1285,7.7714,-5.5897,1590568968,N
74,1845520,-2.0794,7.6905,-5.4604,0.3500,0.3500,-0.3500,999.6705,-2.1261,7.7739,-5.5872,1590568969,N
73,1844623,-2.1511,7.6499,-5.3886,0.3500,0.7700,0.0700,999.6703,-2.1373,7.7782,-5.5769,1590568969,N
73,1841471,-2.1081,7.6570,-5.4796,-0.1400,0.5600,0.0700,999.6703,-2.1357,7.7785,-5.5771,1590568969,N
73,1838119,-2.1057,7.6690,-5.5083,-0.2800,0.7700,-0.1400,999.6709,-2.1332,7.7760,-5.5816,1590568969,N
74,1836360,-2.1775,7.7336,-5.4174,-0.2100,0.4900,0.0700,999.6711,-2.1450,7.7864,-5.5624,1590568969,N
73,1835346,-2.0506,7.6594,-5.3336,0.6300,0.2800,-0.0700,999.6713,-2.1367,7.7967,-5.5513,1590568969,N
73,1834608,-2.1535,7.6355,-5.4628,0.2100,0.6300,-0.0700,999.6702,-2.1460,7.7887,-5.5588,1590568969,N
73,1833983,-2.1129,7.6140,-5.3575,0.0700,0.6300,0.3500,999.6685,-2.1464,7.7951,-5.5497,1590568969,N
74,1833804,-2.1368,7.6618,-5.4174,0.5600,0.5600,-0.2100,999.6677,-2.1522,7.7918,-5.5522,1590568969,N
73,1833472,-2.0770,7.6307,-5.3958,0.8400,0.4200,0.2100,999.6671,-2.1449,7.7923,-5.5543,1590568969,N
73,1832044,-2.1511,7.6714,-5.4389,0.7000,0.4900,0.0700,999.6661,-2.1515,7.7888,-5.5566,1590568969,N
73,1828857,-2.0602,7.6403,-5.3719,-0.0700,0.1400,-0.0700,999.6647,-2.1435,7.7974,-5.5476,1590568970,N
73,1826239,-2.1129,7.6546,-5.5059,0.4900,0.3500,-0.0700,999.6634,-2.1431,7.7876,-5.5616,1590568970,N
73,1824827,-2.0985,7.6546,-5.4341,0.7700,0.4200,-0.1400,999.6628,-2.1422,7.7847,-5.5660,1590568970,N
73,1823683,-2.1511,7.6499,-5.4748,0.7700,0.3500,0.1400,999.6626,-2.1493,7.7783,-5.5722,1590568970,N
73,1822623,-2.1248,7.5996,-5.3504,0.0700,0.7700,0.2100,999.6622,-2.1524,7.7847,-5.5620,1590568970,N
73,1822036,-2.1320,7.6379,-5.4317,0.3500,0.5600,-0.0700,999.6620,-2.1555,7.7824,-5.5640,1590568970,N
73,1821590,-2.0985,7.6307,-5.4485,-0.4200,0.3500,-0.0700,999.6622,-2.1516,7.7844,-5.5627,1590568970,N
73,1820273,-2.1344,7.6164,-5.4221,0.3500,0.6300,0.1400,999.6620,-2.1548,7.7824,-5.5643,1590568970,N
73,1817105,-2.1105,7.6235,-5.4078,0.4200,0.4900,-0.0700,999.6614,-2.1547,7.7823,-5.5645,1590568970,N
73,1814231,-2.1248,7.6642,-5.4365,0.5600,0.2800,-0.0700,999.6617,-2.1561,7.7820,-5.5644,1590568970,N
73,1812742,-2.0961,7.6403,-5.4437,0.9100,0.3500,-0.0700,999.6620,-2.1522,7.7782,-5.5711,1590568971,N
73,1811533,-2.1105,7.6355,-5.4293,0.0700,0.4200,0.0700,999.6624,-2.1508,7.7807,-5.5682,1590568971,N
73,1810759,-2.0698,7.6235,-5.4030,-0.2100,0.3500,0.0700,999.6624,-2.1429,7.7874,-5.5619,1590568971,N
73,1810131,-2.1081,7.7001,-5.3862,0.0700,0.2100,0.0700,999.6636,-2.1426,7.7976,-5.5477,1590568971,N
73,1809740,-2.1200,7.6714,-5.4676,0.1400,0.9100,0.0700,999.6642,-2.1409,7.7933,-5.5544,1590568971,N
73,1809448,-2.1129,7.7121,-5.4054,-0.2800,0.6300,0.2100,999.6649,-2.1382,7.8027,-5.5422,1590568971,N
73,1807434,-2.1081,7.6690,-5.4126,0.0700,0.4900,0.2100,999.6655,-2.1373,7.8051,-5.5392,1590568971,N
73,1804544,-2.1105,7.6786,-5.4365,0.5600,0.2800,0.0700,999.6655,-2.1380,7.8026,-5.5424,1590568971,N
73,1802715,-2.1272,7.6786,-5.3599,0.0700,0.5600,0.2100,999.6648,-2.1415,7.8098,-5.5310,1590568971,N
73,1801775,-2.1727,7.7192,-5.4700,0.9800,0.4200,-0.1400,999.6650,-2.1522,7.8003,-5.5402,1590568971,N
73,1801112,-2.1176,7.6283,-5.4485,0.9100,0.2800,-0.1400,999.6652,-2.1543,7.7906,-5.5530,1590568972,N
73,1800603,-2.1248,7.6092,-5.4245,0.7000,0.6300,0.2100,999.6644,-2.1551,7.7854,-5.5599,1590568972,N
73,1800412,-2.1559,7.6451,-5.4317,0.0700,0.5600,-0.2100,999.6635,-2.1627,7.7834,-5.5599,1590568972,N
73,1800410,-2.0937,7.6187,-5.4365,0.4200,0.3500,0.1400,999.6627,-2.1564,7.7823,-5.5638,1590568972,N
73,1799378,-2.0985,7.6594,-5.4485,1.6100,0.2100,0.0700,999.6622,-2.1523,7.7769,-5.5729,1590568972,N
73,1796441,-2.1583,7.6187,-5.4676,-0.1400,0.2100,0.0700,999.6609,-2.1604,7.7749,-5.5725,1590568972,N
72,1794015,-2.1248,7.6020,-5.4724,0.4200,0.3500,0.1400,999.6600,-2.1603,7.7699,-5.5797,1590568972,N
73,1792721,-2.1631,7.6475,-5.4604,0.4200,0.6300,0.0700,999.6593,-2.1657,7.7678,-5.5805,1590568972,N
72,1791855,-2.1631,7.6164,-5.4820,0.1400,0.4200,0.0700,999.6581,-2.1712,7.7638,-5.5838,1590568972,N
72,1791229,-2.1440,7.6092,-5.4317,0.0700,0.4200,0.0700,999.6572,-2.1734,7.7658,-5.5802,1590568972,N
72,1790887,-2.1368,7.6211,-5.4437,0.2100,0.7000,0.0700,999.6566,-2.1720,7.7659,-5.5806,1590568973,N
73,1790745,-2.1320,7.6403,-5.4820,0.2100,0.7700,-0.0700,999.6562,-2.1689,7.7631,-5.5858,1590568973,N
72,1790579,-2.1344,7.6355,-5.4820,-0.2100,0.7000,0.1400,999.6557,-2.1658,7.7640,-5.5857,1590568973,N
72,1788472,-2.1344,7.6451,-5.4843,-0.3500,0.7000,0.1400,999.6543,-2.1628,7.7660,-5.5841,1590568973,N
72,1785760,-2.1153,7.6092,-5.4437,0.2800,0.6300,0.0700,999.6530,-2.1601,7.7657,-5.5855,1590568973,N
72,1784204,-2.1033,7.6451,-5.4604,0.2100,0.4200,-0.0700,999.6520,-2.1555,7.7673,-5.5851,1590568973,N
72,1783628,-2.1679,7.6283,-5.4748,0.3500,0.2800,-0.0700,999.6514,-2.1652,7.7634,-5.5868,1590568973,N
72,1782993,-2.1559,7.6475,-5.4676,-0.3500,0.7700,-0.0700,999.6508,-2.1679,7.7650,-5.5835,1590568973,N
72,1782801,-2.1081,7.6331,-5.4269,-0.2800,0.4200,0.0700,999.6507,-2.1628,7.7722,-5.5755,1590568973,N
72,1783045,-2.1440,7.6331,-5.4317,0.2800,0.5600,-0.1400,999.6506,-2.1667,7.7716,-5.5748,1590568973,N
72,1783621,-2.1296,7.6044,-5.4078,0.2100,0.4900,0.0700,999.6506,-2.1676,7.7734,-5.5718,1590568974,N
72,1783209,-2.1440,7.6834,-5.4221,0.9100,0.2800,-0.1400,999.6506,-2.1705,7.7747,-5.5689,1590568974,N
72,1780960,-2.0674,7.6283,-5.3527,0.5600,0.2100,-0.0700,999.6506,-2.1612,7.7832,-5.5607,1590568974,N
72,1778912,-2.2062,7.6331,-5.4030,0.7700,0.2100,-0.1400,999.6512,-2.1799,7.7793,-5.5589,1590568974,N
72,1778266,-2.1344,7.7025,-5.4628,0.5600,0.3500,-0.1400,999.6517,-2.1762,7.7791,-5.5606,1590568974,N
72,1777981,-2.1416,7.6307,-5.4126,0.5600,0.5600,0.0700,999.6521,-2.1765,7.7785,-5.5613,1590568974,N
72,1778375,-2.1009,7.6259,-5.3958,0.5600,0.3500,-0.2100,999.6528,-2.1719,7.7797,-5.5615,1590568974,N
72,1778615,-2.1248,7.6618,-5.4556,0.4900,0.3500,-0.0700,999.6541,-2.1691,7.7781,-5.5647,1590568974,N
72,1778848,-2.1751,7.6451,-5.4700,0.4900,0.2800,-0.0700,999.6541,-2.1771,7.7727,-5.5692,1590568974,N
72,1778642,-2.1583,7.6379,-5.4221,0.3500,0.5600,-0.1400,999.6534,-2.1810,7.7724,-5.5681,1590568974,N
72,1776557,-2.1846,7.6307,-5.4341,0.4200,0.4200,-0.0700,999.6533,-2.1894,7.7700,-5.5682,1590568975,N
71,1774245,-2.1775,7.6546,-5.4437,-0.2100,0.4900,-0.0700,999.6536,-2.1929,7.7724,-5.5635,1590568975,N
72,1773300,-2.0985,7.6259,-5.4174,0.3500,0.4200,0.0700,999.6536,-2.1818,7.7754,-5.5636,1590568975,N
72,1773008,-2.2253,7.6929,-5.4006,0.3500,0.3500,0.0700,999.6540,-2.1959,7.7801,-5.5514,1590568975,N
72,1773039,-2.1440,7.6235,-5.4078,-0.2800,0.6300,-0.0700,999.6541,-2.1930,7.7826,-5.5491,1590568975,N
71,1773270,-2.1583,7.6187,-5.3767,0.1400,0.4900,-0.0700,999.6535,-2.1954,7.7848,-5.5451,1590568975,N
72,1773707,-2.1535,7.6187,-5.4413,0.0700,0.8400,0.0700,999.6531,-2.1924,7.7809,-5.5517,1590568975,N
71,1774374,-2.1272,7.6546,-5.3671,0.3500,0.6300,0.2100,999.6525,-2.1857,7.7882,-5.5441,1590568975,N
71,1773638,-2.1775,7.6475,-5.4461,-0.1400,0.4900,0.0700,999.6526,-2.1893,7.7866,-5.5449,1590568975,N
71,1771360,-2.0865,7.6499,-5.4437,-0.3500,0.4200,0.0700,999.6525,-2.1747,7.7903,-5.5455,1590568975,N
71,1769729,-2.1368,7.6235,-5.3145,-0.2100,0.4200,0.2100,999.6523,-2.1763,7.8015,-5.5290,1590568976,N
71,1769540,-2.1655,7.6451,-5.3791,0.9100,0.6300,-0.0700,999.6523,-2.1823,7.7970,-5.5331,1590568976,N
71,1769497,-2.1392,7.6786,-5.4365,0.4900,0.4900,0.0700,999.6518,-2.1788,7.7949,-5.5374,1590568976,N
71,1769863,-2.1009,7.6786,-5.4245,0.2100,0.2100,0.0700,999.6522,-2.1697,7.7979,-5.5367,1590568976,N
71,1770522,-2.1607,7.6881,-5.4197,0.4900,0.7000,0.0700,999.6521,-2.1721,7.7966,-5.5377,1590568976,N
71,1771416,-2.0650,7.6427,-5.4676,0.6300,-0.0700,0.0700,999.6518,-2.1589,7.7926,-5.5485,1590568976,N
71,1771869,-2.1631,7.6666,-5.4245,1.0500,0.3500,0.0700,999.6513,-2.1663,7.7882,-5.5518,1590568976,N
71,1769871,-2.1488,7.6403,-5.4580,1.0500,0.2800,0.0700,999.6505,-2.1697,7.7803,-5.5615,1590568976,N
71,1767701,-2.1368,7.6403,-5.4461,0.7700,-0.0700,0.0700,999.6497,-2.1717,7.7780,-5.5639,1590568976,N
71,1767121,-2.1129,7.6427,-5.4867,0.4200,0.4200,-0.1400,999.6492,-2.1666,7.7727,-5.5733,1590568976,N
71,1766967,-2.2014,7.6068,-5.4987,0.2800,0.4200,0.1400,999.6486,-2.1789,7.7638,-5.5809,1590568977,N
71,1767053,-2.1105,7.7049,-5.3719,0.2800,0.5600,0.0700,999.6483,-2.1708,7.7782,-5.5640,1590568977,N
71,1767454,-2.1655,7.6499,-5.4389,0.4900,0.4200,-0.1400,999.6470,-2.1771,7.7755,-5.5652,1590568977,N
71,1768282,-2.1583,7.6307,-5.4700,-0.0700,0.3500,-0.0700,999.6464,-2.1802,7.7729,-5.5677,1590568977,N
71,1769060,-2.1440,7.5852,-5.4509,-0.0700,0.7700,-0.0700,999.6465,-2.1804,7.7684,-5.5739,1590568977,N
71,1767156,-2.2564,7.7456,-6.0371,-3.4300,-1.3300,-0.0700,999.6469,-2.1877,7.7452,-5.6032,1590568977,N
71,1764146,-2.8522,9.0185,-7.2191,-78.8900,-12.4600,0.3500,999.6472,-2.1888,8.1900,-4.9299,1590568977,N
71,1764497,-4.3047,7.5446,-3.1513,-75.8800,-56.8400,3.2900,999.6478,-2.6728,8.6498,-3.7694,1590568977,N
71,1774787,-3.9051,11.2917,-3.7424,-114.1700,-84.7700,105.8400,999.6490,-1.5972,9.5009,-1.8311,1590568977,N
71,1776768,-1.6487,8.2863,-0.5815,-81.6900,-19.4600,197.7500,999.6500,-0.5671,9.5187,-2.2899,1590568978,N
71,1786315,3.3954,6.8530,-1.7779,-62.0200,78.1900,229.1100,999.6503,0.9120,8.7141,-4.4049,1590568978,N
71,1799891,8.8367,2.8786,2.6034,37.2400,147.9800,127.0500,999.6505,3.5452,8.1167,-4.2097,1590568978,N
71,1818524,3.7256,8.3533,4.7809,122.9200,158.6200,-31.2200,999.6487,4.0134,8.4094,-3.0570,1590568978,N
71,1835071,3.6108,3.3500,10.6074,-180.1100,41.0900,60.9000,999.6464,4.1671,8.8763,-0.1293,1590568978,N
71,1849118,6.8698,4.9101,5.1757,77.9100,-6.7900,-3.9900,999.6432,4.1305,8.8893,0.2982,1590568978,N
72,1860476,4.5870,6.6042,6.4774,-55.9300,10.6400,-1.4700,999.6385,2.9049,9.1434,2.0324,1590568978,N
71,1871728,5.7882,6.6497,6.4606,35.4200,-8.9600,9.1700,999.6329,2.7597,9.1818,2.0615,1590568978,N
72,1885544,5.2546,5.5394,6.0227,0.3500,1.5400,13.2300,999.6274,2.4860,9.1013,2.6752,1590568978,N
72,1899139,6.0227,4.3980,5.9605,-4.1300,-4.6200,0.2100,999.6218,8.4474,4.6265,1.8460,1590568978,N
72,1910253,5.7021,5.1996,6.0419,6.2300,6.3000,-5.9500,999.6162,7.9168,5.0738,2.7843,1590568978,N
72,1919370,5.4317,5.2211,6.3649,-1.5400,5.6700,-6.6500,999.6120,7.4032,5.3375,3.5880,1590568979,N
72,1924488,5.5083,5.2164,6.5037,6.7900,-0.6300,-4.8300,999.6080,7.0161,5.4630,4.1353,1590568979,N
72,1925363,5.4389,5.5968,6.1950,1.8200,-0.3500,-2.7300,999.6042,6.6860,5.5585,4.5356,1590568979,N
72,1926469,5.3791,5.3695,6.1878,-5.2500,-2.1700,-0.2800,999.6008,6.4511,5.5377,4.8875,1590568979,N
72,1928354,5.4915,5.3073,6.0323,-11.4800,-0.1400,-1.7500,999.5978,6.2691,5.4743,5.1867,1590568979,N
72,1930699,5.5777,4.6086,6.5133,3.7100,-9.5200,-5.8100,999.5956,6.1821,5.3725,5.3934,1590568979,N
72,1933727,5.7308,5.6997,5.7643,4.5500,-12.2500,0.4200,999.5933,6.1452,5.4421,5.3656,1590568979,N
72,1936332,5.6710,5.4437,5.9294,5.5300,-12.9500,0.0700,999.5911,6.1160,5.4653,5.3755,1590568979,N
72,1938488,5.9462,5.5035,5.5035,7.5600,-11.1300,-6.7200,999.5890,6.1057,5.5444,5.3057,1590568979,N
72,1936802,5.6255,5.7021,5.6542,23.7300,1.0500,-11.5500,999.5872,5.9379,5.7629,5.2631,1590568980,N
72,1933819,5.6255,6.2381,5.0943,-3.3600,6.7900,-6.7200,999.5860,5.8053,5.8778,5.2840,1590568980,N
72,1939581,5.3623,5.9246,6.1472,1.7500,8.5400,-11.3400,999.5846,5.5843,5.9334,5.4572,1590568980,N
72,1946214,4.7330,6.0538,6.1663,-10.5000,9.8000,1.8900,999.5833,5.3718,5.8962,5.7052,1590568980,N
72,1953432,5.4293,6.3601,5.7835,4.1300,-7.7700,-3.1500,999.5818,5.3677,5.9838,5.6172,1590568980,N
72,1958775,5.3743,5.4102,5.4772,-0.7000,-9.5900,-4.4800,999.5798,5.4434,5.9380,5.5929,1590568980,N
72,1963345,5.1182,6.4343,5.5848,14.2800,-2.1700,-8.9600,999.5783,5.3228,6.1436,5.4858,1590568980,N
72,1967259,5.2307,7.0540,5.0943,6.2300,0.0700,-3.4300,999.5769,5.2525,6.3296,5.3402,1590568980,N
72,1969109,5.1852,5.9103,5.5729,3.1500,-0.5600,3.3600,999.5759,5.2792,6.2663,5.3884,1590568980,N
72,1967385,5.2905,6.0299,5.3791,-0.4200,1.1900,-0.4900,999.5749,5.2895,6.2378,5.4113,1590568980,N
72,1966059,5.1996,6.4702,5.4197,4.4100,-0.6300,-3.7800,999.5745,5.2401,6.3135,5.3714,1590568980,N
72,1966103,5.1063,6.5492,5.3240,4.6200,0.3500,-3.9900,999.5744,5.1805,6.3981,5.3289,1590568981,N
72,1966853,5.1541,6.4941,5.1781,1.1200,0.2800,-1.4000,999.5745,5.1688,6.4348,5.2960,1590568981,N
72,1967593,5.1350,6.4893,5.2977,-1.6100,1.1900,0.7000,999.5743,5.1593,6.4310,5.3099,1590568981,N
72,1968506,5.0776,6.4080,5.3169,0.9800,0.9800,-0.7000,999.5747,5.1391,6.4422,5.3158,1590568981,N
72,1970020,5.1135,6.5803,5.3192,2.8700,-0.5600,-1.4700,999.5748,5.1182,6.4820,5.2875,1590568981,N
73,1970491,4.9364,6.3721,5.1470,-2.9400,1.4000,0.3500,999.5755,5.1042,6.4750,5.3097,1590568981,N
73,1968085,5.1661,6.3338,5.3049,1.5400,0.0700,-0.2100,999.5757,5.1207,6.4641,5.3070,1590568981,N
73,1966209,5.1350,6.6903,5.2977,-0.3500,1.1200,0.3500,999.5759,5.1048,6.4850,5.2968,1590568981,N
73,1965892,5.0704,6.3529,5.3551,-1.0500,1.2600,0.6300,999.5752,5.1038,6.4592,5.3292,1590568981,N
73,1966042,5.1733,6.5539,5.2786,1.6800,1.2600,-0.9100,999.5751,5.0978,6.4821,5.3070,1590568982,N
73,1966270,5.1494,6.4176,5.3384,-1.6800,-0.3500,0.4900,999.5742,5.1137,6.4577,5.3216,1590568982,N
73,1966851,5.1350,6.3338,5.2762,2.7300,0.2100,-1.6800,999.5739,5.1155,6.4683,5.3068,1590568982,N
73,1967749,5.0752,6.5707,5.2451,3.1500,-0.7000,-0.2800,999.5732,5.1057,6.5051,5.2713,1590568982,N
73,1968494,5.1063,6.4750,5.3551,4.9000,1.1200,0.9800,999.5728,5.0998,6.5163,5.2632,1590568982,N
73,1966445,5.1326,6.5563,5.1589,2.7300,-0.0700,-0.1400,999.5724,5.1051,6.5410,5.2272,1590568982,N
73,1963927,5.1063,6.6401,5.2211,3.6400,0.4200,-0.0700,999.5724,5.0935,6.5716,5.2001,1590568982,N
73,1962513,5.1302,6.5515,5.2235,-0.5600,0.4200,0.2100,999.5721,5.0986,6.5611,5.2083,1590568982,N
73,1961717,5.1182,6.6832,5.1159,1.0500,0.3500,-0.2100,999.5725,5.0944,6.5863,5.1806,1590568982,N
73,1961896,5.1350,6.5109,5.1278,0.5600,0.1400,0.7000,999.5728,5.1114,6.5781,5.1742,1590568982,N
73,1962144,5.1206,6.5587,5.1685,-0.6300,0.8400,0.2800,999.5727,5.1125,6.5710,5.1821,1590568982,N
73,1962879,5.1661,6.5515,5.1852,2.1000,0.9800,-1.4000,999.5721,5.1070,6.5831,5.1723,1590568983,N
73,1962832,5.1781,6.5180,5.1972,-5.3200,-2.1000,2.3800,999.5718,5.1486,6.5291,5.1994,1590568983,N
73,1959752,5.0297,6.4965,5.1613,2.3100,0.8400,-0.9100,999.5717,5.1245,6.5533,5.1928,1590568983,N
73,1957070,5.1852,6.5850,5.1111,3.9200,1.1900,-0.4900,999.5717,5.1238,6.5813,5.1579,1590568983,N
73,1956300,5.0752,6.5037,5.2235,-0.4900,2.7300,-0.3500,999.5724,5.1038,6.5706,5.1912,1590568983,N
73,1956070,5.1517,6.6425,5.2116,-1.1900,1.5400,0.5600,999.5733,5.1015,6.5645,5.2012,1590568983,N
73,1956060,5.1039,6.3171,5.1541,1.4700,1.1900,0.0700,999.5745,5.1156,6.5470,5.2095,1590568983,N
72,1956635,5.1230,6.5827,5.1757,0.5600,1.4000,0.0700,999.5751,5.1093,6.5553,5.2052,1590568983,N
73,1957729,5.0824,6.6042,5.1637,0.5600,1.1900,-0.1400,999.5755,5.0973,6.5691,5.1996,1590568983,N
73,1958562,5.1541,6.4869,5.2164,-0.5600,1.1200,-0.1400,999.5757,5.1046,6.5525,5.2132,1590568984,N
73,1956293,5.0584,6.6975,5.1350,1.3300,0.9800,-0.7700,999.5768,5.0820,6.5880,5.1906,1590568984,N
73,1953360,5.1206,6.5539,5.1852,-0.0700,0.7000,-0.2100,999.5776,5.0858,6.5826,5.1937,1590568984,N
73,1951344,5.0489,6.5898,5.2116,-0.6300,0.1400,-0.0700,999.5781,5.0784,6.5817,5.2020,1590568984,N
73,1950248,5.1087,6.5731,5.0680,2.4500,-0.0700,-1.4000,999.5782,5.0810,6.6084,5.1656,1590568984,N
73,1949591,5.0991,6.6257,5.1781,-0.7700,-0.7000,0.2800,999.5772,5.0874,6.6027,5.1666,1590568984,N
73,1949902,5.1015,6.5037,5.2164,1.5400,-0.0700,-0.2100,999.5762,5.0915,6.5964,5.1706,1590568984,N
73,1951057,5.0943,6.6688,5.0273,0.9800,-0.6300,-0.2800,999.5757,5.0953,6.6209,5.1354,1590568984,N
73,1952061,5.1278,6.6808,5.1517,-3.7800,0.0700,0.7000,999.5756,5.1020,6.6006,5.1548,1590568984,N
73,1950796,5.1589,6.5468,5.0871,-0.2800,-0.3500,-0.2800,999.5750,5.1181,6.5955,5.1454,1590568984,N
73,1948043,5.1589,6.5444,5.1063,0.6300,0.0700,0.0700,999.5753,5.1293,6.5927,5.1378,1590568985,N
72,1946365,5.1398,6.5468,5.1087,-0.2800,0.1400,0.1400,999.5757,5.1361,6.5868,5.1387,1590568985,N
73,1946126,5.1589,6.5827,5.1685,1.2600,0.7000,-0.4900,999.5759,5.1308,6.5917,5.1376,1590568985,N
72,1946417,5.1230,6.6520,5.0943,0.7000,0.8400,-0.2800,999.5759,5.1215,6.6070,5.1272,1590568985,N
73,1946889,5.1517,6.6401,5.1374,-0.2100,0.9800,-0.0700,999.5767,5.1181,6.6070,5.1305,1590568985,N
72,1947892,5.1326,6.5779,5.1326,1.4700,0.6300,0.2100,999.5768,5.1191,6.6092,5.1267,1590568985,N
73,1948985,5.0752,6.6616,5.1063,1.2600,0.7000,0.1400,999.5774,5.1065,6.6253,5.1186,1590568985,N
72,1948556,5.1757,6.6520,5.0967,0.2800,0.5600,0.2100,999.5776,5.1141,6.6252,5.1110,1590568985,N
72,1946240,5.0871,6.6544,5.1685,2.3800,0.4900,0.1400,999.5778,5.1014,6.6379,5.1073,1590568985,N
72,1944990,4.9795,6.8794,5.1182,1.7500,1.5400,-0.0700,999.5772,5.0569,6.6807,5.0958,1590568985,N
73,1945265,5.0728,6.6042,5.1350,0.8400,0.7000,0.2100,999.5772,5.0597,6.6718,5.1047,1590568986,N
72,1946859,5.0393,6.6784,5.0321,1.6100,1.0500,-0.4900,999.5773,5.0508,6.6900,5.0897,1590568986,N
72,1948499,5.0560,6.6640,5.0895,-0.2800,0.9800,-0.4900,999.5775,5.0461,6.6879,5.0970,1590568986,N
72,1950103,5.0728,6.6138,5.1350,0.4900,1.1200,0.2100,999.5778,5.0487,6.6767,5.1090,1590568986,N
73,1951690,5.1206,6.7454,5.1087,0.3500,0.6300,0.4900,999.5773,5.0540,6.6783,5.1017,1590568986,N
72,1952635,5.0321,6.6903,5.1876,0.2100,0.5600,0.6300,999.5770,5.0462,6.6729,5.1165,1590568986,N
73,1950795,5.0656,6.5994,5.1230,-0.7700,-0.2800,0.2800,999.5775,5.0576,6.6577,5.1252,1590568986,N
72,1948872,5.0321,6.6784,5.0991,0.7000,0.4200,0.2800,999.5782,5.0528,6.6657,5.1194,1590568986,N
73,1948821,5.0417,6.5611,5.1757,-1.5400,-0.3500,0.7700,999.5787,5.0630,6.6391,5.1438,1590568986,N
72,1949294,5.0321,6.6520,5.0656,2.0300,-0.6300,-0.5600,999.5786,5.0597,6.6618,5.1177,1590568986,N
73,1950247,5.1015,6.7190,5.1494,-0.2100,-0.5600,1.0500,999.5791,5.0691,6.6562,5.1156,1590568987,N
72,1951952,5.1087,6.6305,5.0728,2.2400,-0.5600,-0.4900,999.5787,5.0767,6.6679,5.0928,1590568987,N
73,1953885,5.0632,6.7525,5.0871,2.3800,0.3500,-0.2800,999.5787,5.0635,6.6921,5.0741,1590568987,N
72,1955793,5.1326,6.8195,4.9627,0.2100,1.6100,-0.4900,999.5790,5.0600,6.7122,5.0510,1590568987,N
73,1955561,5.1709,6.6473,5.0847,-0.8400,1.0500,0.2100,999.5788,5.0761,6.6897,5.0648,1590568987,N
72,1953835,5.1230,6.6832,5.0345,1.1200,1.8200,-0.9100,999.5786,5.0700,6.6983,5.0594,1590568987,N
73,1952915,5.1350,6.6520,5.0034,0.4900,1.4000,-0.4200,999.5787,5.0762,6.6975,5.0543,1590568987,N
73,1952977,5.1182,6.6784,5.1135,2.2400,0.4900,-0.2100,999.5790,5.0748,6.7010,5.0510,1590568987,N
73,1953100,5.1182,6.6568,5.0560,0.1400,0.4900,0.9100,999.5791,5.0869,6.6889,5.0549,1590568987,N
72,1953943,5.1924,6.4965,5.0680,2.1000,0.4900,-0.1400,999.5788,5.1102,6.6711,5.0549,1590568987,N
73,1955372,5.0608,6.5994,5.1039,1.2600,1.2600,-0.3500,999.5786,5.0963,6.6718,5.0681,1590568987,N
73,1956732,5.1159,6.5874,5.0560,-0.9800,1.1900,0.5600,999.5781,5.1043,6.6542,5.0831,1590568988,N
72,1956227,5.1302,6.6879,5.0584,0.2800,0.9800,-0.7000,999.5789,5.0980,6.6628,5.0781,1590568988,N
72,1954105,5.1230,6.6305,5.0225,-0.0700,1.1200,0.1400,999.5793,5.1026,6.6604,5.0767,1590568988,N
72,1952685,5.1374,6.7645,5.0728,0.6300,0.5600,-0.2100,999.5795,5.0961,6.6737,5.0658,1590568988,N
73,1952773,5.1757,6.6951,5.0943,1.1900,0.4200,-0.2100,999.5795,5.1002,6.6757,5.0590,1590568988,N
72,1953360,5.0776,6.6999,5.0752,4.4100,-0.6300,-0.7000,999.5798,5.0888,6.7052,5.0313,1590568988,N
72,1954332,5.1637,6.7765,5.1182,3.0100,0.1400,-1.4700,999.5800,5.0777,6.7247,5.0166,1590568988,N
72,1955879,5.1278,6.6616,5.8840,10.6400,0.8400,-9.5900,999.5798,4.9761,6.7611,5.0691,1590568988,N
73,1958750,5.0704,6.6114,5.1948,4.3400,-12.6000,-17.0800,999.5784,4.9470,6.8407,4.9902,1590568988,N
72,1963569,4.9029,7.0397,4.5846,21.1400,-14.9800,-27.3000,999.5766,4.8197,7.1392,4.6875,1590568989,N
72,1969024,4.4124,7.5087,4.7761,2.3800,-13.6500,-20.6500,999.5754,4.6515,7.3106,4.5922,1590568989,N
72,1973539,2.7374,6.5133,7.0062,40.0400,-54.3900,-21.4900,999.5744,4.3322,7.5523,4.5128,1590568989,N
73,1977694,5.0489,7.7599,2.0698,24.7100,-82.8100,-40.9500,999.5746,4.5653,7.9362,3.5135,1590568989,N
72,1971638,4.2712,8.6381,0.9739,-52.9900,-55.1600,-86.8700,999.5742,4.4721,8.1619,3.0910,1590568989,N
72,1966877,2.1272,8.0542,2.5723,-91.3500,9.1000,-133.0000,999.5732,3.3255,8.4863,3.6186,1590568989,N
72,1974734,0.0359,12.9332,0.4570,-117.2500,14.7000,-41.8600,999.5735,2.7080,8.3978,4.2795,1590568989,N
72,1981136,-0.5049,7.2550,5.0752,12.7400,34.9300,-49.4900,999.5734,3.3742,3.1872,8.6387,1590568989,N
72,1990751,-1.3424,8.5639,5.0369,-84.7700,29.0500,-30.0300,999.5731,2.2214,2.4613,9.2292,1590568989,N
72,1999227,-2.6177,7.5805,6.9488,9.5200,21.5600,-29.9600,999.5735,1.0949,3.0252,9.2639,1590568989,N
72,2015571,-2.7087,8.0925,5.2355,-21.7000,-4.6900,-7.2100,999.5739,0.2601,3.7851,9.0430,1590568990,N
72,2026944,-2.5101,7.1450,6.0251,-32.8300,23.6600,30.3800,999.5752,-0.4531,4.7761,8.5530,1590568990,N
72,2033189,-1.2275,4.9173,6.6760,-9.1000,11.6200,7.2100,999.5764,-0.6415,5.0939,8.3553,1590568990,N
72,2036091,-2.4670,7.2407,6.0778,-2.5200,28.7000,-16.7300,999.5775,-1.3168,6.1115,7.5555,1590568990,N
72,2038757,-3.5605,6.0299,7.7886,-9.9400,17.9900,-8.6100,999.5785,-1.8547,6.1255,7.4302,1590568990,N
71,2042286,-3.6299,5.7404,6.4893,16.0300,10.2200,-20.5100,999.5787,-2.3922,6.2132,7.2003,1590568990,N
72,2045941,-4.1731,7.4871,6.1974,10.8500,-0.3500,-19.7400,999.5795,-2.7990,6.3970,6.8858,1590568990,N
72,2049851,-5.0895,5.5011,5.9246,-28.4900,-21.7000,7.2100,999.5798,-3.1061,6.1002,7.0221,1590568990,N
72,2050751,-2.4598,6.5420,8.1715,9.3100,-45.2900,-3.0100,999.5792,-2.6886,5.9493,7.3177,1590568990,N
71,2052567,-1.5266,6.3410,6.8794,3.8500,-16.0300,6.0900,999.5793,-2.3488,6.0264,7.3713,1590568990,N
71,2055592,-1.9956,6.0275,6.6544,-23.8000,19.8800,24.5000,999.5785,-2.3031,6.1715,7.2648,1590568991,N
71,2057670,-2.2421,5.0680,6.2381,16.4500,24.3600,1.9600,999.5776,-2.4840,6.4005,7.0024,1590568991,N
71,2060232,-3.4935,6.7645,7.4321,50.1900,17.6400,-5.6700,999.5760,-2.7535,6.7196,6.5905,1590568991,N
71,2062837,-3.0245,6.3673,5.6088,74.8300,8.8900,-25.6200,999.5745,-3.0306,7.1034,6.0438,1590568991,N
71,2066094,-3.7902,6.5539,4.3310,80.6400,8.1900,-27.8600,999.5736,-3.3545,7.5105,5.3395,1590568991,N
71,2067849,-4.7139,8.8822,3.1202,110.3200,-9.4500,-29.5400,999.5740,-3.6250,8.1206,4.1335,1590568991,N
71,2068513,-4.6421,8.6405,1.3974,85.7500,-7.4900,-8.8200,999.5743,-3.6599,8.6260,2.8926,1590568991,N
71,2069144,-4.6205,8.2122,0.6293,61.5300,-1.3300,-2.8700,999.5743,-3.5657,8.9378,1.8900,1590568991,N
71,2063300,-4.2664,9.0808,-0.0909,37.2400,2.8000,3.2900,999.5746,-3.2646,9.1836,1.0834,1590568991,N
71,2054838,-4.2329,8.5519,-0.2608,32.4100,-3.7800,-2.1000,999.5759,-2.9433,9.3408,0.5058,1590568991,N
71,2049774,-4.6780,8.5041,-1.0169,25.2000,-1.0500,-2.1700,999.5775,-2.4583,9.4934,-0.0384,1590568992,N
71,2046160,-4.5823,8.6931,-1.5745,16.7300,0.4200,5.2500,999.5797,-1.5245,9.6740,-0.5091,1590568992,N
71,2042172,-4.2616,8.6046,-1.0504,-6.3700,1.3300,4.4100,999.5823,-0.8196,9.7558,-0.5676,1590568992,N
71,2036622,-4.1563,7.7408,-1.3902,-13.9300,6.8600,5.1800,999.5844,0.3112,9.7847,-0.5776,1590568992,N
71,2032650,-4.2927,8.5065,-1.5984,-9.9400,4.4800,-4.4800,999.5863,-6.2297,7.5482,-0.6217,1590568992,N
71,2030149,-4.3956,7.4489,-2.2660,29.6800,0.2100,-2.9400,999.5877,-5.8584,7.7761,-1.1755,1590568992,N
71,2026607,-4.5344,8.3844,-2.2014,12.8800,-0.4200,-2.9400,999.5887,-5.5804,7.9283,-1.4733,1590568992,N
70,2022108,-4.1587,8.1882,-2.4407,14.9100,-0.4200,6.0200,999.5903,-5.2851,8.0658,-1.7837,1590568992,N
71,2018506,-4.5272,8.5017,-1.9813,20.8600,-0.2100,11.0600,999.5924,-5.1629,8.1055,-1.9534,1590568992,N
71,2017274,-3.3141,8.9850,-2.7159,-62.4400,12.1100,27.5100,999.5949,-3.9682,8.8068,-1.6925,1590568992,N
71,2016516,-3.0317,7.7599,-2.8834,-69.8600,3.9900,-3.1500,999.5978,-3.3186,9.1402,-1.2704,1590568993,N
70,2011758,-4.6469,7.6881,-2.3689,28.7000,-0.0700,-15.4700,999.6003,-4.0237,8.7635,-1.7835,1590568993,N
71,2005517,-4.5464,7.4943,-2.9599,21.7000,3.6400,3.5000,999.6025,-4.3182,8.5198,-2.2218,1590568993,N
71,2000709,-4.0032,9.0185,-2.7063,12.1800,2.5200,5.4600,999.6042,-4.2331,8.5183,-2.3852,1590568993,N
71,1995721,-3.5151,8.7769,-2.8786,3.5000,2.0300,8.5400,999.6058,-4.0197,8.5885,-2.5000,1590568993,N
71,1993100,-4.0941,9.4038,-2.1248,7.9800,7.3500,21.5600,999.6081,-3.8302,8.6921,-2.4385,1590568993,N
71,1993390,-3.1777,7.0708,-2.6656,7.9100,17.5700,28.6300,999.6094,-3.5469,8.7722,-2.5765,1590568993,N
71,1993496,-2.2828,8.7458,-1.9214,-30.7300,30.5900,32.6900,999.6108,-2.8060,9.1296,-2.2240,1590568993,N
71,1990834,-2.9360,8.4443,-2.9695,29.6800,17.9900,4.2000,999.6113,-2.9054,8.9812,-2.6584,1590568993,N
71,1984612,-2.3019,8.5807,-4.6564,18.6200,-24.5700,6.1600,999.6113,-2.8935,8.8545,-3.0653,1590568993,N
71,1978176,-1.7563,7.2814,-4.6469,66.1500,-36.5400,-13.3000,999.6113,-3.2754,8.4413,-3.7665,1590568994,N
71,1974047,-2.9169,8.9204,-5.2881,18.1300,-17.3600,-34.0200,999.6115,-3.5084,8.1778,-4.1212,1590568994,N
71,1970400,-2.5340,8.6453,-4.9101,4.4100,18.2700,-5.4600,999.6125,-3.2596,8.1696,-4.3363,1590568994,N
71,1967855,-3.2542,7.2670,-4.0487,17.5700,13.0900,-5.7400,999.6135,-3.3486,8.0162,-4.5494,1590568994,N
71,1967257,-4.8000,7.0014,-5.0895,37.1000,-0.5600,2.5200,999.6148,-3.6857,7.6372,-4.9254,1590568994,N
72,1965496,-3.6538,6.9559,-6.5539,3.2200,-2.9400,7.4900,999.6155,-3.6419,7.4886,-5.1796,1590568994,N
72,1959675,-3.1107,7.5111,-5.1852,-37.5900,7.9800,14.5600,999.6166,-3.3680,7.7799,-4.9296,1590568994,N
72,1954650,-2.6225,7.7049,-4.2497,-4.9700,-2.1000,9.8700,999.6181,-3.1884,7.9470,-4.7801,1590568994,N
72,1951883,-2.4646,7.6187,-4.8909,26.6700,-17.3600,7.3500,999.6207,-3.1186,7.8783,-4.9373,1590568994,N
72,1950394,-3.0030,6.9607,-5.6112,32.4800,-24.6400,1.9600,999.6240,-3.2576,7.6291,-5.2302,1590568994,N
72,1949343,-3.6060,7.0373,-6.7023,13.3700,-13.3000,-5.1800,999.6268,-3.4121,7.3662,-5.5015,1590568995,N
72,1948647,-3.4768,7.4297,-6.0323,-31.7800,3.9200,6.0900,999.6283,-3.3140,7.5239,-5.3459,1590568995,N
72,1949102,-3.0820,7.3412,-4.6110,-34.6500,3.0100,8.8200,999.6292,-3.1985,7.8034,-5.0046,1590568995,N
72,1947456,-2.8020,7.6953,-4.4172,-3.7100,0.1400,2.7300,999.6307,-3.1265,7.8977,-4.9012,1590568995,N
73,1942632,-3.1131,7.6881,-4.7665,11.0600,-0.1400,-1.1900,999.6322,-3.1625,7.8337,-4.9802,1590568995,N
73,1938773,-3.1968,7.6451,-4.9220,8.1900,-7.0700,0.8400,999.6332,-3.2127,7.7936,-5.0108,1590568995,N
73,1936967,-3.1992,7.4656,-5.1470,0.4900,-7.9800,-0.2100,999.6337,-3.2565,7.7639,-5.0287,1590568995,N
73,1935538,-3.2136,7.4489,-5.3025,4.9700,-4.8300,-0.1400,999.6340,-3.2830,7.6996,-5.1097,1590568995,N
73,1934189,-3.2877,7.6187,-5.3862,10.7100,3.5000,2.1000,999.6343,-3.2639,7.6220,-5.2367,1590568995,N
73,1933715,-3.1896,7.4536,-5.1709,2.6600,6.7900,3.6400,999.6353,-3.2144,7.6135,-5.2794,1590568995,N
73,1933129,-3.0269,7.4847,-5.1661,-3.1500,7.9100,3.1500,999.6360,-3.1361,7.6438,-5.2828,1590568996,N
73,1928981,-2.9838,7.6331,-5.1039,-2.5900,2.1700,3.2900,999.6372,-3.0830,7.6926,-5.2431,1590568996,N
73,1924109,-2.9599,7.5637,-5.1494,-1.4700,0.2800,3.4300,999.6375,-3.0456,7.7212,-5.2229,1590568996,N
74,1921314,-2.8594,7.5565,-5.1900,0.2100,-1.8200,3.0800,999.6373,-3.0081,7.7379,-5.2198,1590568996,N
73,1920249,-2.8427,7.4991,-5.1039,0.8400,-2.7300,0.7000,999.6375,-2.9999,7.7412,-5.2196,1590568996,N
74,1919547,-2.9408,7.5254,-5.3145,2.6600,-1.8200,-0.4900,999.6375,-3.0096,7.7062,-5.2656,1590568996,N
74,1919438,-3.0197,7.7456,-5.0991,0.2800,0.8400,0.4900,999.6375,-3.0090,7.7226,-5.2419,1590568996,N
74,1920107,-2.8953,7.9490,-5.0082,-30.9400,2.2400,4.3400,999.6374,-2.9142,7.9383,-4.9660,1590568996,N
74,1920042,-2.8522,7.8939,-4.7689,-33.1100,0.7000,6.1600,999.6376,-2.8257,8.1432,-4.6770,1590568996,N
74,1916190,-2.6919,7.7862,-4.5846,-4.8300,1.1900,1.1900,999.6383,-2.8020,8.1613,-4.6597,1590568996,N
74,1912781,-2.8618,8.2959,-4.2903,4.4800,-0.9800,0.7000,999.6385,-2.8223,8.1805,-4.6135,1590568997,N
74,1912761,-2.7015,8.2672,-4.4387,-0.7700,-0.4200,-0.2100,999.6394,-2.8025,8.2083,-4.5760,1590568997,N
75,1913673,-2.7446,8.2217,-4.4004,-14.8400,-4.6200,-9.2400,999.6395,-2.8529,8.2558,-4.4580,1590568997,N
74,1915776,-2.7470,8.7888,-4.9244,-13.0200,-8.5400,0.7000,999.6395,-2.8010,8.3277,-4.3559,1590568997,N
75,1918735,-1.6128,8.8247,-4.8455,9.8000,2.2400,-4.7600,999.6385,-2.5896,8.2980,-4.5396,1590568997,N
74,1922036,-1.7109,7.5422,-4.1803,12.4600,24.0100,-1.6800,999.6374,-2.4535,8.1958,-4.7936,1590568997,N
75,1923283,-1.6869,8.0088,-5.3073,68.0400,31.2200,-6.2300,999.6356,-2.2874,7.7180,-5.6010,1590568997,N
75,1919766,-1.7970,6.3218,-5.5442,64.8200,32.9700,-23.8700,999.6340,-2.2739,6.9669,-6.5163,1590568997,N
75,1915702,-2.8307,4.7952,-6.5587,88.9700,47.3900,-35.2800,999.6321,-2.2388,5.6738,-7.6790,1590568997,N
75,1915568,-4.0845,3.2590,-7.3819,100.5900,46.3400,-71.3300,999.6310,-2.4526,4.0311,-8.5968,1590568997,N
75,1916013,-4.9508,1.8640,-7.7025,67.9000,13.3700,-79.0300,999.6300,-2.9209,2.9011,-8.9007,1590568997,N
76,1915466,-4.4219,2.3019,-9.2483,53.6200,-41.7200,-44.9400,999.6302,-3.4002,2.3401,-8.8957,1590568998,N
76,1919839,-3.0724,1.1653,-8.1811,73.7800,-0.6300,-23.2400,999.6312,-3.0089,1.4901,-9.2139,1590568998,N
76,1926892,-2.6991,0.2608,-10.1240,25.4800,20.6500,-3.8500,999.6329,-2.5188,0.9346,-9.4315,1590568998,N
76,1937023,-2.7733,-0.2943,-9.2028,20.2300,-18.5500,-11.8300,999.6351,-2.3983,0.5000,-9.4957,1590568998,N
76,1936338,-2.9121,-0.3517,-9.1382,1.5400,0.7700,0.6300,999.6378,-2.2420,0.3019,-9.5422,1590568998,N
76,1934698,-2.8546,-0.4211,-9.1980,8.8900,-4.4800,-3.2900,999.6412,-6.3799,0.4578,-7.4335,1590568998,N
77,1934743,-3.1657,-0.6341,-9.1238,14.1400,-22.6800,-4.8300,999.6439,-7.5679,0.1722,-6.2344,1590568998,N
77,1931569,-3.2447,-0.4642,-9.3296,9.9400,-24.7100,0.4900,999.6467,-7.6231,-0.0383,-6.1691,1590568998,N
77,1925878,-3.6299,-0.8997,-8.6118,3.0100,-4.4100,20.2300,999.6493,-7.1167,-0.2083,-6.7439,1590568998,N
77,1921802,-4.4483,-1.4501,-8.3198,30.4500,-21.9100,18.4800,999.6516,-6.6753,-0.5804,-7.1605,1590568999,N
77,1911056,-3.3882,-1.1773,-9.0808,3.7100,24.5700,-4.2700,999.6544,-5.4415,-0.8283,-8.1163,1590568999,N
77,1910048,-4.1827,-1.3400,-8.4227,20.2300,24.1500,-9.9400,999.6572,-4.9588,-1.1041,-8.3882,1590568999,N
77,1915125,-4.3023,-1.9597,-8.8415,-17.9200,14.6300,-24.7800,999.6594,-4.1254,-1.2001,-8.8154,1590568999,N
76,1922118,-2.6034,-0.4283,-9.5210,5.6000,21.4200,-40.0400,999.6609,-3.4919,-1.1530,-9.0911,1590568999,N
77,1927791,-4.0750,-1.6941,-7.9513,-2.5200,26.8800,-2.5900,999.6625,-3.4157,-1.2390,-9.1087,1590568999,N
77,1929769,-2.3665,-1.0289,-9.8800,7.2100,16.7300,-6.3700,999.6645,-3.0659,-1.2451,-9.2315,1590568999,N
77,1930099,-4.5703,-3.6299,-8.4419,-43.3300,13.6500,6.7900,999.6663,-2.9682,-1.2782,-9.2589,1590568999,N
76,1927565,-2.1440,-0.5934,-8.5735,16.8000,-9.7300,-11.5500,999.6686,-3.0671,-1.3225,-9.2203,1590568999,N
77,1927217,-2.0171,-0.6317,-9.9135,-16.8000,-0.1400,2.8000,999.6700,-2.7129,-1.0353,-9.3669,1590568999,N
76,1927104,-1.9549,-0.4594,-9.6024,-13.7200,7.3500,4.7600,999.6715,-2.3731,-0.7807,-9.4831,1590569000,N
77,1934300,-1.5960,-0.0526,-9.4277,-7.5600,3.4300,3.2900,999.6735,-2.1323,-0.5469,-9.5564,1590569000,N
77,1948081,-2.8068,-0.3733,-9.6957,-3.6400,-2.7300,6.9300,999.6748,-2.2133,-0.4759,-9.5418,1590569000,N
77,1960955,-2.6967,-0.2441,-9.1813,-27.1600,-40.6000,38.1500,999.6759,-2.0979,-0.1748,-9.5780,1590569000,N
76,1963021,-3.6299,1.2084,-9.1023,-16.2400,-32.3400,41.3000,999.6766,-6.5916,0.1729,-7.2589,1590569000,N
77,1959436,-4.7689,0.6365,-8.8032,-30.6600,-22.6100,49.2800,999.6770,-5.0460,0.6406,-8.3844,1590569000,N
76,1955146,-4.8000,0.8638,-8.5328,1.1200,-11.7600,42.0000,999.6774,-4.4536,0.7961,-8.7007,1590569000,N
76,1950073,-4.4483,2.0674,-8.6453,-21.5600,-6.3700,52.2200,999.6774,-4.3974,1.3381,-8.6627,1590569000,N
76,1943825,-2.9982,1.4070,-7.8604,-12.0400,12.1100,43.3300,999.6772,-4.0502,1.5817,-8.7900,1590569000,N
76,1940294,-2.8810,1.5817,-9.3583,-28.2800,8.1200,54.8100,999.6776,-3.7240,1.9269,-8.8650,1590569000,N
76,1939882,-0.4618,5.0512,-9.0688,-80.0800,38.3600,54.6000,999.6785,-2.9420,3.1259,-8.8172,1590569001,N
76,1941401,0.1986,6.5755,-6.9440,-41.1600,50.5400,34.0900,999.6779,-1.9848,3.8348,-8.8049,1590569001,N
76,1942948,0.5838,7.6666,-7.5924,-17.2900,75.3200,44.1700,999.6772,-0.9291,3.6680,-9.0473,1590569001,N
76,1945183,1.9502,5.5992,-7.1569,-8.6800,18.8300,66.5000,999.6763,0.0318,2.9296,-9.3588,1590569001,N
76,1942797,2.7015,5.2451,-6.6185,7.0000,-11.2700,30.9400,999.6752,0.5767,0.9604,-9.7424,1590569001,N
76,1939121,2.6943,5.8528,-8.4156,4.5500,-18.8300,-14.9100,999.6744,0.5435,7.3328,-6.4888,1590569001,N
76,1937028,0.6245,6.2118,-8.8343,-103.9500,23.8000,-14.2100,999.6724,0.5026,8.2160,-5.3307,1590569001,N
76,1936439,2.6177,8.8080,-8.0949,-79.5200,81.4100,-25.4100,999.6696,0.7216,8.7495,-4.3699,1590569001,N
76,1936456,1.3352,7.7384,-2.5795,-217.0000,97.3700,17.4300,999.6674,0.8473,9.4989,-2.2856,1590569001,N
76,1939531,3.2590,8.9707,0.6796,-101.4300,80.3600,-1.8200,999.6660,1.0133,9.7142,-0.8822,1590569001,N
76,1946546,2.8690,8.4873,2.7278,-147.4900,54.8100,-0.0700,999.6641,-0.3612,9.7421,1.0634,1590569002,N
76,1952432,1.9143,6.8339,6.2142,-29.4700,-17.7800,5.7400,999.6616,-1.9829,9.4219,1.8620,1590569002,N
75,1959216,3.1825,6.6616,4.8790,-37.3100,-8.2600,-1.4000,999.6571,-2.7517,9.1666,2.1381,1590569002,N
76,1964570,2.7829,7.7671,5.3456,7.8400,-10.8500,-8.3300,999.6519,5.1372,7.9927,2.4284,1590569002,N
76,1970178,2.7852,7.8867,4.2927,-11.0600,-20.0200,-26.8100,999.6469,4.4765,8.2515,2.8361,1590569002,N
76,1973137,2.8642,9.0879,3.5127,17.0800,-19.0400,-22.9600,999.6414,3.8702,8.5701,2.7830,1590569002,N
75,1976061,2.3139,9.3679,2.8786,3.2900,7.7000,-2.8700,999.6364,3.3504,8.7832,2.7929,1590569002,N
75,1977557,2.4479,8.4897,3.9888,-10.9200,6.9300,2.5900,999.6315,3.1519,8.7574,3.0892,1590569002,N
75,1978142,2.4072,8.7841,4.8359,12.7400,6.1600,-0.2800,999.6261,2.8893,8.7918,3.2446,1590569002,N
75,1976909,2.3617,7.9059,4.7569,3.3600,2.1700,-1.6800,999.6216,2.7787,8.7317,3.4939,1590569002,N
75,1975920,2.2134,8.3079,4.3573,2.4500,2.6600,-4.1300,999.6169,2.6230,8.7274,3.6224,1590569002,N
74,1976699,2.2588,8.6859,4.2640,11.9700,-0.2100,-3.5700,999.6138,2.4840,8.7726,3.6113,1590569003,N
75,1977817,2.1392,8.7362,4.2497,-0.4200,1.3300,-0.4200,999.6110,2.4017,8.7514,3.7169,1590569003,N
74,1979487,2.2421,8.6405,4.1085,-0.4200,2.6600,1.0500,999.6080,2.3699,8.7233,3.8024,1590569003,N
75,1981614,2.1033,8.6333,4.3741,-8.3300,3.5000,3.2200,999.6054,2.3440,8.6450,3.9926,1590569003,N
74,1983837,2.3115,8.4012,4.4076,-8.8900,3.7800,4.4800,999.6028,2.3790,8.5455,4.1814,1590569003,N
73,1983487,2.1799,8.4419,4.5679,-6.7900,3.1500,3.5000,999.6010,2.3652,8.4729,4.3343,1590569003,N
74,1982782,2.3139,8.3366,4.6469,-9.0300,3.5000,3.9200,999.5988,2.3858,8.3814,4.4978,1590569003,N
74,1983674,2.2277,8.0495,5.1517,-10.5000,-2.1700,2.0300,999.5964,2.3928,8.2651,4.7045,1590569003,N
74,1985346,2.5531,7.8078,4.8287,2.9400,-0.9100,-0.8400,999.5947,2.4342,8.2390,4.7290,1590569003,N
74,1987350,2.1894,8.4802,5.0154,1.4700,2.2400,-0.2100,999.5929,2.3619,8.2454,4.7545,1590569004,N
74,1989953,2.3426,7.7623,5.1494,-11.0600,-2.2400,1.6100,999.5911,2.4015,8.1268,4.9354,1590569004,N
74,1992737,2.4479,7.6594,4.9651,5.4600,-1.1900,-2.9400,999.5889,2.4081,8.1352,4.9183,1590569004,N
74,1995016,2.3498,8.6524,4.5990,12.4600,2.8700,-1.7500,999.5868,2.3487,8.2569,4.7410,1590569004,N
74,1994275,2.3186,8.2433,4.6732,-2.5200,5.2500,0.5600,999.5853,2.3350,8.2392,4.7785,1590569004,N
74,1993692,2.1727,8.1763,5.2905,-4.4100,2.2400,-1.1200,999.5840,2.2863,8.1820,4.8988,1590569004,N
74,1993493,1.9310,8.1284,5.1661,-9.1700,-6.7200,-7.3500,999.5828,2.1974,8.1799,4.9428,1590569004,N
74,1993554,2.1703,8.4323,5.1541,-26.6700,-39.8300,-30.3800,999.5817,2.1330,8.2796,4.8029,1590569004,N
74,1995356,1.7037,8.4562,4.5368,-16.1000,-63.5600,-29.8200,999.5811,2.0588,8.4742,4.4854,1590569004,N
75,1998186,1.5051,7.5781,4.8742,-18.2000,-61.8800,10.5700,999.5806,2.2886,8.3538,4.5985,1590569004,N
75,2001572,2.5819,9.3248,5.3097,-23.3100,-51.8700,32.4100,999.5808,2.7994,8.0950,4.7755,1590569005,N
75,2002614,4.1372,6.9200,4.5272,66.4300,-58.4500,85.6100,999.5819,3.8212,7.8894,4.3961,1590569005,N
75,1998644,6.5922,6.7980,2.3785,20.5800,-39.4100,125.4400,999.5822,5.3192,7.2345,3.9418,1590569005,N
75,1992529,9.3440,3.7448,2.1775,1.7500,-3.4300,82.8800,999.5829,6.5888,6.2197,3.7515,1590569005,N
75,1991381,8.3940,2.1129,3.7328,-66.9900,-11.1300,36.5400,999.5835,7.4674,4.8060,4.1606,1590569005,N
75,1993043,10.6816,2.3282,2.6106,-12.7400,7.0000,10.9900,999.5844,7.7559,4.3848,4.0976,1590569005,N
75,1992764,8.0088,4.4411,3.7017,38.0100,36.9600,-10.0100,999.5853,7.5496,4.7087,4.1234,1590569005,N
75,1997443,7.6666,4.0391,4.8239,-19.8100,20.6500,-4.1300,999.5854,7.4539,4.5432,4.4687,1590569005,N
76,1999479,8.0303,4.8431,4.2449,-2.1700,-7.7700,23.0300,999.5839,7.6455,4.3807,4.3041,1590569005,N
75,1992532,7.8891,2.8355,4.7809,-4.6900,13.1600,-8.7500,999.5827,7.6400,4.1329,4.5519,1590569005,N
75,1989393,8.4443,4.4076,3.3045,55.3000,-19.5300,-15.4000,999.5820,7.7706,4.4729,3.9725,1590569006,N
75,1985043,8.3533,6.1161,2.8881,27.3000,3.0800,-18.5500,999.5817,7.6334,4.9573,3.6506,1590569006,N
76,1984179,7.8437,4.6995,4.0630,-24.5700,1.4700,3.2200,999.5811,7.6768,4.7603,3.8179,1590569006,N
76,1981646,7.7049,4.8335,3.0939,-75.3200,5.5300,42.0700,999.5816,7.9309,4.2165,3.9362,1590569006,N
76,1978548,8.2696,3.0365,4.4650,-34.9300,-1.4700,14.5600,999.5815,8.0710,3.7382,4.1297,1590569006,N
76,1982373,7.9801,3.4839,4.5176,14.9800,-0.3500,-2.5900,999.5814,8.0482,3.7596,4.1547,1590569006,N
76,1985495,8.2887,3.9458,4.3119,0.9100,0.3500,2.4500,999.5822,8.0514,3.7577,4.1502,1590569006,N
76,1983079,8.2887,3.1561,4.3860,-2.5900,0.7000,3.3600,999.5822,8.0991,3.5990,4.1978,1590569006,N
76,1980100,8.2648,3.1322,4.3573,5.9500,0.4900,-1.0500,999.5830,8.1218,3.5310,4.2117,1590569006,N
77,1979312,8.2552,3.2160,4.3908,-1.9600,0.8400,0.4900,999.5833,8.1337,3.4535,4.2529,1590569006,N
77,1979199,8.3198,3.2207,4.3621,1.1200,1.1200,-0.4900,999.5833,8.1440,3.4080,4.2699,1590569007,N
76,1979390,8.3055,3.3165,4.4291,-0.8400,0.9800,0.5600,999.5835,8.1454,3.3731,4.2949,1590569007,N
77,1979963,8.3055,3.1825,4.4267,0.2800,0.4900,-0.1400,999.5833,8.1537,3.3293,4.3131,1590569007,N
76,1980927,8.2313,3.0891,4.3908,-3.5700,1.3300,0.7700,999.5831,8.1614,3.2644,4.3480,1590569007,N
77,1980317,8.2552,3.2136,4.4195,-0.1400,0.5600,0.4200,999.5831,8.1640,3.2458,4.3572,1590569007,N
76,1978193,8.3414,3.1178,4.4411,0.2100,0.9100,-0.3500,999.5829,8.1698,3.2158,4.3684,1590569007,N
77,1977097,8.2744,3.2901,4.4291,0.5600,0.7000,0.2100,999.5827,8.1658,3.2232,4.3704,1590569007,N
77,1977126,8.3007,3.1609,4.4387,0.5600,0.2100,-0.1400,999.5826,8.1711,3.2061,4.3731,1590569007,N
77,1977260,7.9992,2.5101,3.3428,28.4200,-12.1800,-28.2800,999.5824,8.2241,3.3874,4.1304,1590569007,N
77,1976843,7.9753,4.7904,4.0104,69.7200,-22.8900,-11.4100,999.5823,8.1963,3.9035,3.7086,1590569007,N
77,1978690,8.1236,5.0704,3.4720,37.6600,-9.0300,-7.6300,999.5822,8.1221,4.2661,3.4644,1590569008,N
77,1980622,8.3342,4.3669,2.5795,-21.2100,6.3700,14.2100,999.5822,8.2259,4.1349,3.3774,1590569008,N
77,1976280,8.4012,5.2929,3.5270,-34.5800,31.9200,21.2100,999.5826,8.1184,4.1025,3.6650,1590569008,N
77,1967657,7.7958,0.4594,4.5775,-37.9400,-10.5000,13.2300,999.5839,8.4024,3.1100,3.9873,1590569008,N
77,1964746,8.3103,3.5725,4.4770,20.0900,3.7100,-3.5000,999.5850,8.3155,3.2835,4.0300,1590569008,N
78,1966219,8.2098,3.5916,4.2449,-5.3200,2.5900,0.5600,999.5858,8.2655,3.3214,4.1012,1590569008,N
78,1967164,8.2816,3.1202,4.3789,1.4000,2.5900,-0.0700,999.5858,8.2475,3.2875,4.1643,1590569008,N
78,1968190,8.2600,3.3284,4.4243,1.6100,1.0500,-0.8400,999.5857,8.2199,3.3005,4.2083,1590569008,N
78,1969597,8.2457,3.4648,4.3717,1.2600,0.6300,0.7700,999.5853,8.2019,3.3233,4.2255,1590569008,N
78,1970461,8.2624,3.2710,4.2233,-3.0100,-1.0500,0.1400,999.5856,8.2124,3.2973,4.2254,1590569008,N
78,1968245,8.3844,3.6969,4.3310,-3.0100,2.4500,-2.6600,999.5859,8.1680,3.3663,4.2571,1590569009,N
78,1966366,8.4084,3.4433,4.3573,1.3300,-0.1400,-2.7300,999.5861,8.1598,3.3867,4.2566,1590569009,N
78,1965830,8.1691,3.4409,4.2951,-1.6100,-1.7500,0.8400,999.5856,8.1655,3.3796,4.2512,1590569009,N
78,1965404,8.2911,3.4839,4.3047,5.1800,-3.8500,1.9600,999.5856,8.1927,3.3855,4.1940,1590569009,N
78,1965736,8.2792,3.3452,4.1085,6.0200,-5.8800,5.5300,999.5861,8.2606,3.3450,4.0919,1590569009,N
78,1966797,8.3725,3.1035,4.1611,3.9200,-5.7400,2.4500,999.5864,8.3144,3.2769,4.0377,1590569009,N
78,1968924,8.5017,3.5509,3.8740,8.1900,-2.5200,-0.4200,999.5864,8.3329,3.3432,3.9440,1590569009,N
78,1969906,8.3677,3.2303,3.9769,1.2600,-1.6100,-0.6300,999.5868,8.3440,3.3252,3.9359,1590569009,N
78,1967937,8.4993,3.5318,3.8477,1.1200,-2.4500,-2.5200,999.5873,8.3466,3.3710,3.8911,1590569009,N
78,1966445,8.4467,3.6491,3.8955,3.3600,-0.1400,-3.9900,999.5873,8.3196,3.4527,3.8773,1590569009,N
78,1966413,8.4323,3.5844,3.9003,0.4200,3.3600,-2.6600,999.5872,8.2900,3.4967,3.9013,1590569010,N
78,1966542,8.4802,3.2949,4.0199,-5.8800,4.2700,-0.9100,999.5873,8.2799,3.4434,3.9695,1590569010,N
78,1966963,8.3701,3.3523,4.0558,-2.0300,3.1500,-0.7000,999.5873,8.2666,3.4249,4.0130,1590569010,N
78,1967772,8.3175,3.5892,4.0104,-1.8900,0.7000,1.3300,999.5878,8.2623,3.4361,4.0123,1590569010,N
78,1968660,8.4132,3.3954,4.1013,-1.4000,-0.0700,0.4900,999.5883,8.2692,3.4093,4.0209,1590569010,N
78,1968691,8.3629,3.5294,4.0630,1.1200,-0.5600,0.6300,999.5896,8.2704,3.4215,4.0079,1590569010,N
78,1966986,8.3964,3.3523,4.0056,0.7700,-0.8400,1.3300,999.5908,8.2918,3.3933,3.9878,1590569010,N
77,1965423,8.4060,3.4911,3.9817,1.4700,-1.0500,0.7000,999.5906,8.3012,3.4014,3.9611,1590569010,N
78,1965247,8.3342,3.4528,3.9434,2.5200,-0.8400,0.4900,999.5903,8.3080,3.4120,3.9378,1590569010,N
77,1965122,8.4754,3.4289,3.9625,0.1400,-2.1000,0.7000,999.5901,8.3271,3.3950,3.9120,1590569010,N
78,1965070,8.4682,3.4433,3.9649,2.4500,-0.6300,-0.1400,999.5895,8.3314,3.4015,3.8972,1590569011,N
77,1965190,8.4538,3.4863,3.9338,1.5400,0.7000,-0.4200,999.5894,8.3262,3.4179,3.8939,1590569011,N
78,1965771,8.4849,3.4505,3.8836,-2.1700,0.2800,1.6800,999.5889,8.3393,3.3958,3.8852,1590569011,N
77,1965199,8.4514,3.5557,3.8812,0.7700,2.3100,0.2100,999.5883,8.3273,3.4236,3.8865,1590569011,N
78,1963123,8.4371,3.4289,3.9147,-0.4900,-0.3500,0.9100,999.5875,8.3366,3.4082,3.8801,1590569011,N
77,1961855,8.4467,3.5151,3.8859,2.2400,1.1200,0.0700,999.5867,8.3320,3.4298,3.8711,1590569011,N
78,1962011,8.4514,3.3811,4.0032,3.4300,2.0300,-0.7700,999.5864,8.3212,3.4325,3.8918,1590569011,N
77,1962528,8.3749,3.3308,4.1444,4.0600,4.2000,-2.3800,999.5858,8.2854,3.4453,3.9563,1590569011,N
77,1964115,8.4491,3.2925,4.4004,24.9200,-1.7500,-8.8200,999.5854,8.2494,3.5423,3.9459,1590569011,N
77,1966008,8.2313,4.1515,4.3597,44.1700,-21.9100,-5.9500,999.5852,8.2577,3.7785,3.7019,1590569011,N
78,1966218,8.0064,4.5631,3.2231,21.8400,-30.5900,0.8400,999.5846,8.3553,3.9170,3.3191,1590569012,N
77,1965040,8.4203,4.0869,2.3713,-21.9100,-69.1600,1.2600,999.5848,8.7064,3.6313,2.6799,1590569012,N
77,1964095,8.5831,4.1731,1.0026,-0.2100,-72.5200,6.3000,999.5853,9.0653,3.3123,1.7374,1590569012,N
77,1961980,8.9994,3.8883,-0.9978,-2.8700,-56.9800,9.1700,999.5861,9.4068,2.6925,0.6581,1590569012,N
77,1958736,9.3440,3.6443,-1.6008,-5.5300,-27.0200,5.7400,999.5870,6.3971,7.3781,0.9003,1590569012,N
77,1955623,9.3248,3.7280,-1.4333,6.4400,-2.0300,3.7800,999.5884,6.0470,7.7125,0.3498,1590569012,N
77,1954314,9.0449,3.4337,-0.8040,6.1600,6.7900,3.2900,999.5897,6.1201,7.6625,0.0392,1590569012,N
77,1955254,9.3918,3.7017,-0.6724,-2.8700,7.7700,5.7400,999.5914,6.5640,7.2849,-0.1210,1590569012,N
77,1956328,9.4158,3.4839,-0.3302,-0.0700,3.5000,3.1500,999.5931,7.1420,6.7177,-0.1891,1590569012,N
77,1956634,9.0999,3.4720,-0.7394,-3.5700,4.2700,4.4100,999.5942,8.2470,5.2968,-0.3175,1590569012,N
77,1954828,9.3248,3.1466,-0.1651,-0.4200,8.8900,4.1300,999.5953,8.6995,4.5202,-0.2369,1590569013,N
78,1953261,9.3799,3.6347,-0.2034,6.9300,-0.6300,0.1400,999.5972,8.9290,4.0473,-0.2512,1590569013,N
77,1953390,9.3009,3.3260,-0.4762,-0.8400,-2.9400,-0.1400,999.5992,8.9784,3.9316,-0.3174,1590569013,N
77,1953143,9.3224,3.3356,-0.4211,-0.9800,2.1000,0.1400,999.6015,9.0836,3.6819,-0.3204,1590569013,N
77,1953292,9.3153,3.3404,-0.4522,-0.9100,4.5500,2.9400,999.6033,9.2000,3.3816,-0.3076,1590569013,N
78,1953844,9.3488,4.2664,-0.0909,-9.4500,7.9100,13.4400,999.6042,9.2946,3.1220,-0.1817,1590569013,N
77,1955213,9.6191,5.5346,-0.8590,-36.7500,17.0100,53.0600,999.6047,9.6160,1.9242,-0.0175,1590569013,N
77,1955497,10.2197,3.3930,-0.5480,47.8800,24.5700,108.5000,999.6052,8.8595,4.2027,-0.1325,1590569013,N
77,1952602,9.5737,0.2704,-0.7226,114.9400,60.6200,123.5500,999.6053,9.7891,0.5024,0.3016,1590569013,N
77,1951697,8.7482,-3.2949,1.3615,142.6600,134.1900,88.8300,999.6056,9.2388,-2.0941,2.5357,1590569013,N
77,1953178,5.8074,-2.2995,5.9462,106.9600,159.7400,19.6700,999.6059,8.7801,-1.5420,4.0869,1590569014,N
77,1958241,4.3597,-3.2375,10.3322,-3.5700,73.2200,-30.6600,999.6061,8.9740,-0.1289,3.9524,1590569014,N
77,1958037,5.2738,-0.2704,8.6692,-7.0700,30.1700,-47.6700,999.6061,9.0199,2.8362,2.6014,1590569014,N
77,1955540,3.9817,4.0104,8.6213,17.5700,18.9700,-6.3000,999.6051,7.9560,5.3529,2.0542,1590569014,N
77,1956008,5.8217,-1.4405,5.3408,-120.4700,4.7600,48.9300,999.6029,7.9791,4.5749,3.4021,1590569014,N
77,1952039,5.0201,-0.6293,8.2098,72.4500,40.0400,44.3100,999.5995,7.9091,4.0591,4.1401,1590569014,N
77,1951113,4.0104,-4.7856,9.2985,47.5300,12.7400,20.9300,999.5961,8.0152,3.3239,4.5693,1590569014,N
77,1946658,4.6612,-1.3854,11.2534,81.0600,10.2200,-16.5200,999.5934,7.8869,3.5534,4.6195,1590569014,N
77,1942238,5.5490,2.3904,8.9013,73.4300,-2.0300,26.6000,999.5903,7.6945,3.9060,4.6592,1590569014,N
77,1941433,3.8596,1.7468,6.3075,-5.6000,22.8900,23.8700,999.5881,7.4919,3.8327,5.0352,1590569014,N
77,1948185,5.5322,0.0909,6.7071,-40.1800,1.6100,-23.5200,999.5853,7.4246,3.5497,5.3334,1590569015,N
77,1963765,3.6060,-1.1031,9.8345,-58.7300,35.8400,-6.9300,999.5826,7.2004,2.5333,6.1568,1590569015,N
77,1969545,3.9075,2.7063,8.4323,-34.9300,53.3400,13.4400,999.5795,6.5471,2.6402,6.8070,1590569015,N
77,1964871,0.5408,-0.8734,12.1795,-80.6400,18.0600,17.9900,999.5770,6.6772,1.3872,7.0471,1590569015,N
77,1961458,3.2877,-0.3278,9.5498,26.8100,-4.2700,-17.1500,999.5743,6.7031,1.2421,7.0496,1590569015,N
77,1962183,2.4263,-2.5220,9.9852,-3.9200,-22.9600,-7.5600,999.5721,7.2705,0.1676,6.5789,1590569015,N
77,1963790,2.8666,1.2897,9.6885,110.2500,-12.3200,-21.2800,999.5696,6.7587,1.2722,6.9908,1590569015,N
77,1960481,1.7827,1.1294,11.3707,-53.6900,-50.9600,-12.3900,999.5677,6.6046,1.1723,7.1537,1590569015,N
77,1957781,5.4030,-0.3374,4.3837,-44.0300,-83.0200,-71.8900,999.5660,6.3957,1.1056,7.3514,1590569015,N
77,1956618,3.5031,-1.4357,6.3553,-16.6600,34.1600,34.4400,999.5650,7.1833,0.4326,6.6621,1590569015,N
77,1959454,3.4241,-3.2853,8.0806,-87.9200,27.5800,91.2800,999.5641,4.0235,-1.0224,8.8846,1590569016,N
77,1965873,3.1131,-8.4754,11.1601,-21.5600,-21.2800,-4.8300,999.5631,4.4191,-1.7078,8.5863,1590569016,N
76,1965426,3.8620,-4.7521,7.9179,55.5800,-11.5500,-30.9400,999.5629,4.2378,-1.7781,8.6631,1590569016,N
77,1961366,4.2903,-3.5486,9.3727,-2.3800,-31.0100,-39.5500,999.5628,4.6925,-1.8773,8.4040,1590569016,N
76,1957120,5.1494,0.2177,7.9777,89.3900,-37.8700,-64.1900,999.5620,4.2717,-0.6437,8.8039,1590569016,N
77,1956048,5.8935,-1.4166,6.4630,3.0800,-16.7300,-32.6200,999.5620,5.1548,-0.7475,8.3090,1590569016,N
77,1958974,7.2574,3.0556,6.6832,-77.0000,-6.3700,40.5300,999.5626,5.9866,-0.6819,7.7373,1590569016,N
76,1961200,4.2903,-2.4718,6.7884,-93.3100,50.4700,85.3300,999.5626,5.6817,-1.8980,7.7644,1590569016,N
76,1963010,3.4505,-7.7049,8.1380,-68.6700,26.0400,77.4200,999.5622,5.0682,-3.1682,7.7747,1590569016,N
76,1961734,2.8786,-4.0726,8.2720,151.4100,36.8900,26.1100,999.5613,3.6184,-2.3066,8.8180,1590569016,N
76,1960490,2.4359,-3.7926,9.5665,-6.1600,-18.0600,-6.3700,999.5610,3.5510,-2.6439,8.7505,1590569017,N
76,1961016,2.3976,-4.2520,8.1715,-59.7800,4.3400,15.6800,999.5605,3.4734,-3.4847,8.4831,1590569017,N
76,1962053,3.3739,-5.3145,7.6738,-46.5500,-24.9900,-1.0500,999.5601,3.7658,-4.2329,8.0045,1590569017,N
76,1957057,3.1729,-5.8983,7.0493,-33.4600,-36.4700,-16.6600,999.5600,4.0414,-4.8158,7.5263,1590569017,N
76,1950407,4.3095,-5.8696,6.4271,-25.7600,-39.2700,-25.8300,999.5604,4.5086,-5.1670,7.0103,1590569017,N
76,1946962,5.3264,-5.1087,5.9079,-37.1000,-49.7700,-30.7300,999.5610,5.1821,-5.3334,6.3930,1590569017,N
75,1947061,7.7910,-6.2094,5.0225,36.5400,14.6300,-13.7900,999.5619,5.3488,-5.0782,6.4632,1590569017,N
76,1949165,6.4822,-4.0080,6.2501,49.2100,37.6600,1.9600,999.5629,5.2765,-4.5684,6.8890,1590569017,N
76,1948611,4.2903,-6.3027,7.4010,65.6600,52.0800,7.8400,999.5638,4.5523,-4.3716,7.5057,1590569017,N
76,1944582,3.9888,-2.1583,8.1715,93.0300,15.6800,-5.5300,999.5652,4.1872,-3.2440,8.2531,1590569017,N
76,1939780,3.5533,-1.5482,8.8439,97.0200,14.7000,-6.5800,999.5669,3.5888,-2.0873,8.8845,1590569018,N
76,1939806,3.9649,0.1938,8.5496,65.7300,-12.4600,14.7000,999.5677,3.2384,-1.1148,9.1891,1590569018,N
76,1937803,4.8096,-0.6987,9.6981,38.7800,-3.9200,6.3000,999.5676,7.5277,-1.9522,5.9743,1590569018,N
76,1942206,4.8215,0.2321,9.2554,80.3600,-13.5800,-19.8800,999.5677,8.2448,-1.2068,5.1708,1590569018,N
76,1943568,4.7521,2.2301,8.7242,73.7800,-17.9200,-30.2400,999.5684,8.2399,-0.0026,5.3174,1590569018,N
76,1944963,5.2522,4.9699,6.9440,-0.3500,-2.1000,-19.1800,999.5688,7.3262,1.2006,6.4075,1590569018,N
76,1951212,4.6636,2.1440,7.7551,-147.9100,8.5400,22.2600,999.5688,6.0817,0.6726,7.6636,1590569018,N
76,1949234,4.5320,-1.9597,8.6094,-132.7900,-8.2600,23.3100,999.5693,6.8157,-0.6631,7.0197,1590569018,N
76,1945920,4.7091,-1.8520,8.7147,-49.9100,-5.3900,13.8600,999.5693,6.3048,-1.2633,7.4043,1590569018,N
76,1944424,4.7833,-2.5436,7.9442,-14.7700,-0.1400,5.8100,999.5695,5.9113,-1.6572,7.6473,1590569018,N
76,1944734,5.1565,-3.7161,8.0877,26.6700,3.5700,3.7100,999.5697,5.4090,-1.8827,7.9605,1590569019,N
75,1945011,4.4004,-1.1605,8.4562,25.2000,12.9500,13.0200,999.5698,4.8734,-1.6182,8.3547,1590569019,N
75,1946283,3.9553,-2.9623,9.4062,-11.1300,-27.6500,6.3700,999.5699,4.8536,-1.9752,8.2892,1590569019,N
75,1946481,4.6971,-3.4648,9.1645,-22.4000,-15.8900,-15.3300,999.5698,5.1500,-2.2341,8.0409,1590569019,N
75,1946572,4.4219,-3.9171,9.8752,31.4300,-61.1100,-47.6000,999.5696,5.5433,-2.0157,7.8345,1590569019,N
75,1941564,4.9819,-2.2181,7.6403,-40.2500,-110.1100,-52.0100,999.5695,6.7609,-2.1147,6.7815,1590569019,N
75,1937044,6.4558,-3.4337,4.0367,-121.3800,-141.5400,-95.6900,999.5684,8.5946,-2.0163,4.2705,1590569019,N
75,1930027,9.0305,0.1412,0.8590,-71.9600,-88.4800,-117.8800,999.5676,9.5880,-0.4069,2.0185,1590569019,N
75,1925228,10.7845,1.5338,-0.2584,-69.1600,9.9400,-109.8300,999.5671,9.7315,0.7851,0.9229,1590569019,N
75,1927023,8.6836,4.5081,1.6750,-39.2000,45.0800,-102.3400,999.5675,9.5803,2.0706,-0.3178,1590569019,N
75,1934664,9.0138,5.6279,2.4407,-37.1700,32.6900,-1.0500,999.5685,9.5577,2.1613,-0.3859,1590569020,N
74,1940030,7.6355,5.0752,6.5707,122.2900,5.9500,-25.8300,999.5699,6.7139,1.7406,6.9329,1590569020,N
75,1941671,8.8319,4.0391,1.9286,-63.2800,1.3300,-2.8700,999.5707,7.2419,2.1739,6.2450,1590569020,N
75,1945650,8.2935,4.3789,4.0965,-20.5100,50.6800,-5.0400,999.5720,7.1856,2.5473,6.1684,1590569020,N
75,1943334,8.3916,1.7755,5.4509,-27.7200,37.4500,4.0600,999.5732,6.9900,2.2263,6.5080,1590569020,N
74,1944072,6.6329,3.7567,5.5872,40.0400,8.3300,-5.4600,999.5739,7.1259,2.7817,6.1363,1590569020,N
74,1943555,7.2957,4.9842,4.6684,-3.8500,-8.4000,9.8700,999.5748,7.3196,3.1293,5.7273,1590569020,N
74,1932288,7.9872,2.7781,4.9795,-48.2300,-37.7300,22.2600,999.5739,7.6402,2.7284,5.5094,1590569020,N
74,2656668,9.0305,1.9813,4.7186,-7.3500,1.6800,3.7100,999.5735,7.8038,2.5260,5.3749,1590569020,N
74,3259508,8.1308,2.5986,4.7809,-2.1700,6.8600,3.1500,999.5730,7.8587,2.5241,5.2954,1590569020,N
74,4140966,9.0042,2.9743,4.6756,-4.9700,-17.5000,3.3600,999.5722,8.0687,2.5279,4.9675,1590569021,N
74,4193287,8.3916,2.4861,4.8718,-1.1900,4.9700,1.4000,999.5710,8.0800,2.5015,4.9624,1590569021,N
74,4193291,8.2505,2.4861,4.9125,0.8400,2.1700,1.2600,999.5701,8.0940,2.4897,4.9456,1590569021,N
74,4193352,8.3366,2.5531,4.8239,-4.5500,-1.8200,2.2400,999.5698,8.1288,2.4628,4.9018,1590569021,N
74,4193107,8.2481,2.4383,4.8981,-2.4500,-1.1200,0.9800,999.5707,8.1432,2.4376,4.8905,1590569021,N
74,4192817,8.2983,2.6225,4.8814,-0.8400,-1.6100,1.4000,999.5718,8.1601,2.4515,4.8552,1590569021,N
74,4192693,8.3246,2.3426,4.8861,-3.4300,-2.8000,1.9600,999.5734,8.1885,2.3963,4.8348,1590569021,N
74,4192567,8.3079,2.4072,4.9555,-1.8900,-0.7000,0.9800,999.5750,8.1902,2.3771,4.8415,1590569021,N
74,4192561,8.3318,2.2899,4.9125,-2.3100,-1.4700,1.1900,999.5764,8.2048,2.3364,4.8367,1590569021,N
74,4192514,8.4012,2.2804,4.8526,-0.6300,0.2800,1.0500,999.5781,8.2200,2.3091,4.8239,1590569021,N
74,4192553,8.3510,2.2564,4.7521,3.2200,0.2800,0.2100,999.5790,8.2414,2.3052,4.7892,1590569022,N
74,4192310,8.2840,2.2540,4.7880,-1.1900,-1.6100,0.9100,999.5801,8.2560,2.2820,4.7751,1590569022,N
74,4192224,8.4251,2.3210,4.9747,-1.6100,-0.4200,1.5400,999.5810,8.2551,2.2622,4.7861,1590569022,N
74,4192273,8.3557,2.3330,4.8383,-0.4200,1.2600,-1.1900,999.5818,8.2411,2.2785,4.8024,1590569022,N
74,4192375,8.4084,2.2804,4.7952,-5.9500,-0.7700,0.4200,999.5827,8.2458,2.2497,4.8079,1590569022,N
74,4192469,8.5161,2.0411,4.8096,-4.6200,-0.0700,0.9100,999.5824,8.2642,2.1793,4.8087,1590569022,N
74,4192653,8.3342,2.2564,4.8670,6.9300,0.4900,-0.5600,999.5814,8.2690,2.2165,4.7835,1590569022,N
74,4044909,8.4491,2.4670,4.7928,3.6400,-2.4500,0.1400,999.5799,8.2879,2.2638,4.7283,1590569022,N
74,3957009,8.4778,2.1535,4.7809,1.3300,-1.2600,-0.4200,999.5790,8.3045,2.2403,4.7103,1590569022,N
75,3943329,8.4060,2.2756,4.7330,1.8200,-0.4900,-1.2600,999.5790,8.3060,2.2565,4.6999,1590569022,N
74,3988451,8.4945,2.4191,4.6062,-0.2800,-2.5900,-0.7000,999.5787,8.3258,2.2825,4.6520,1590569023,N
75,3974001,8.5184,2.1703,4.8383,-4.5500,-6.1600,-3.1500,999.5776,8.3300,2.2505,4.6601,1590569023,N
75,3178100,8.5304,2.1990,4.6612,6.3000,-8.1900,-5.8800,999.5768,8.3613,2.2836,4.5873,1590569023,N
75,1928543,8.4826,2.6393,4.7043,70.9100,-39.1300,-10.5700,999.5761,8.5560,2.5692,4.0454,1590569023,N
75,1812218,8.3581,3.3452,3.1346,13.6500,-5.1100,1.0500,999.5754,8.6128,2.7656,3.7870,1590569023,N
75,1808847,8.7290,3.7137,2.7422,31.7100,3.7100,-0.2800,999.5754,8.6337,3.0602,3.5022,1590569023,N
75,1811678,8.6070,3.8166,3.4768,-24.8500,21.5600,19.0400,999.5749,8.5774,3.0288,3.6640,1590569023,N
75,3912911,9.4636,0.8566,4.1683,-85.0500,1.4000,35.9100,999.5745,8.7736,2.0539,3.8698,1590569023,N
75,3629452,9.1645,1.7970,3.9099,-5.3900,4.5500,2.0300,999.5740,8.7806,1.9684,3.8982,1590569023,N
75,3620018,8.6812,2.3569,4.3047,-11.5500,5.5300,3.7100,999.5733,8.7140,1.9893,4.0348,1590569023,N
75,3621245,8.8487,1.8329,4.2927,-4.4800,3.3600,3.6400,999.5742,8.7050,1.9167,4.0890,1590569024,N
75,3571696,8.7841,2.0124,4.2592,0.7000,1.6100,3.2900,999.5746,8.7028,1.9091,4.0972,1590569024,N
75,3592234,8.7529,1.7013,4.3980,-4.5500,1.1200,3.4300,999.5743,8.6969,1.8270,4.1468,1590569024,N
75,3482863,8.7601,1.7348,4.3286,2.3100,2.3100,-0.8400,999.5739,8.6795,1.8200,4.1862,1590569024,N
75,3347839,8.7817,1.7252,4.2879,-2.8000,-0.4200,1.5400,999.5732,8.6849,1.7773,4.1934,1590569024,N
75,3324976,8.7577,1.9023,4.4100,0.3500,-0.4200,0.9800,999.5724,8.6750,1.7888,4.2089,1590569024,N
75,3344583,8.6883,1.6582,4.4530,-0.1400,2.0300,-0.4200,999.5710,8.6512,1.7649,4.2676,1590569024,N
75,3269475,8.7912,1.7444,4.3502,2.9400,2.5200,-2.2400,999.5708,8.6347,1.7829,4.2935,1590569024,N
75,3229713,8.7625,1.6798,4.3382,-1.4700,0.2100,0.3500,999.5706,8.6386,1.7519,4.2983,1590569024,N
75,3220901,8.7266,1.8640,4.3908,0.4900,-0.8400,-1.7500,999.5705,8.6271,1.7823,4.3090,1590569024,N
75,3238011,8.7888,1.7970,4.3071,0.4900,-1.7500,-2.5900,999.5707,8.6287,1.7981,4.2992,1590569025,N
75,3226655,8.7745,2.0937,4.3454,0.4900,-0.3500,-3.2200,999.5703,8.6079,1.8728,4.3089,1590569025,N
75,3237306,8.7027,1.8736,4.2377,-0.7700,-0.4200,-0.2800,999.5700,8.6167,1.8704,4.2923,1590569025,N
75,3263662,8.8247,2.0746,4.3143,6.5100,-0.4900,-0.2800,999.5697,8.6292,1.9208,4.2448,1590569025,N
75,3341023,8.8128,1.9645,4.0941,-0.6300,-1.9600,1.2600,999.5694,8.6607,1.9120,4.1841,1590569025,N
75,3707172,8.7553,1.6822,4.4674,23.5900,-2.4500,-12.6700,999.5696,8.6358,2.0146,4.1874,1590569025,N
75,3257871,9.1286,2.2110,3.9864,38.2900,3.7100,-17.2200,999.5704,8.6164,2.2765,4.0920,1590569025,N
75,2323479,8.2696,3.5246,4.0654,69.7900,4.4100,-39.1300,999.5707,8.4049,3.0245,4.0473,1590569025,N
75,1874793,8.1356,4.5224,3.4672,10.7100,5.1800,-4.4100,999.5714,8.3107,3.3851,3.9553,1590569025,N
75,1807802,8.7027,3.7854,3.1585,-5.5300,6.8600,8.4000,999.5720,8.3675,3.3940,3.8257,1590569025,N
75,1848299,8.1356,4.7641,4.9340,-6.5100,24.7100,-17.6400,999.5720,8.0065,3.7596,4.2347,1590569026,N
75,1784654,8.2433,3.3093,3.5964,17.9200,-6.3000,5.6000,999.5721,8.1525,3.6998,4.0024,1590569026,N
75,1772823,8.2816,3.4935,3.3356,-27.0900,-10.6400,15.8900,999.5733,8.3330,3.4439,3.8563,1590569026,N
75,1778007,8.5591,3.7089,3.5725,-37.8700,-3.7800,14.4200,999.5743,8.4177,3.2461,3.8439,1590569026,N
75,1951586,8.4849,2.1727,4.4985,-26.2500,-1.4000,9.0300,999.5751,8.4658,2.8800,4.0257,1590569026,N
75,2343906,8.8032,2.3139,4.0271,1.8200,-4.4800,3.9900,999.5762,8.5466,2.7267,3.9611,1590569026,N
75,2507978,8.5831,2.6082,4.2520,2.8000,2.1700,1.4000,999.5767,8.5330,2.6993,4.0091,1590569026,N
75,2595313,8.7482,2.6704,4.0104,1.1200,-0.6300,2.5200,999.5764,8.5590,2.6674,3.9747,1590569026,N
75,2678380,8.7147,2.4670,4.0941,0.0700,0.7700,0.9800,999.5758,8.5684,2.6150,3.9893,1590569026,N
76,2759227,8.8056,2.4000,4.0199,-1.4000,0.1400,0.4200,999.5754,8.5870,2.5568,3.9872,1590569026,N
75,2793818,8.7266,2.5196,3.9936,2.7300,0.7000,-1.3300,999.5748,8.5881,2.5625,3.9810,1590569027,N
76,2816893,8.7960,2.3904,4.0223,-1.0500,-0.7700,-0.4200,999.5739,8.6028,2.5190,3.9771,1590569027,N
76,2899528,8.7147,2.5101,4.0223,1.0500,-0.7700,-1.4000,999.5729,8.6030,2.5233,3.9738,1590569027,N
76,2946580,8.6955,2.6512,3.8907,0.0700,-0.7700,-0.2800,999.5719,8.6095,2.5454,3.9456,1590569027,N
76,3020427,8.7314,2.6297,3.8620,0.1400,-0.3500,0.1400,999.5714,8.6193,2.5560,3.9173,1590569027,N
76,3081364,8.6166,2.6393,3.9601,1.6100,0.4900,-0.6300,999.5716,8.6089,2.5809,3.9239,1590569027,N
76,3148766,8.6812,2.5771,4.0008,-1.8200,1.1900,1.4000,999.5715,8.6067,2.5620,3.9411,1590569027,N
76,3385991,8.6931,2.5316,3.9840,-1.5400,3.8500,2.0300,999.5714,8.6006,2.5394,3.9688,1590569027,N
76,3617471,8.6261,2.7852,4.1444,0.4200,7.2800,3.8500,999.5710,8.5649,2.5662,4.0283,1590569027,N
76,3858462,8.6237,1.8832,4.3884,-11.2000,10.1500,4.0600,999.5703,8.5380,2.3813,4.1956,1590569027,N
76,3965716,8.7769,2.3402,3.8524,7.0000,-0.5600,-4.6900,999.5701,8.5644,2.4250,4.1159,1590569028,N
76,3840790,8.4897,2.8283,4.3238,-5.3900,-1.6800,4.4100,999.5704,8.5492,2.4473,4.1343,1590569028,N
76,3982220,8.7434,1.9023,4.3621,-0.7700,-1.5400,2.0300,999.5710,8.5802,2.3117,4.1480,1590569028,N
76,3974969,8.5854,2.4574,4.3741,1.5400,3.6400,-0.2800,999.5716,8.5428,2.3468,4.2052,1590569028,N
76,4024883,8.7338,2.3498,4.1157,2.1700,2.1700,-1.1200,999.5726,8.5463,2.3594,4.1910,1590569028,N
76,3973652,8.6572,2.4598,4.3525,0.2100,3.4300,-0.1400,999.5728,8.5204,2.3774,4.2333,1590569028,N
76,3883502,8.5543,2.3809,4.3071,2.1000,5.8100,-1.5400,999.5727,8.4866,2.4017,4.2872,1590569028,N
77,3793867,8.6429,2.2110,4.5272,-7.4200,7.2100,0.1400,999.5724,8.4445,2.3422,4.4017,1590569028,N
77,3714132,8.5113,2.2899,4.4865,-0.2800,5.9500,-3.0800,999.5716,8.4019,2.3574,4.4745,1590569028,N
77,3589209,8.4371,2.5795,4.3358,0.2100,-0.6300,-0.4200,999.5710,8.4064,2.4035,4.4415,1590569028,N
77,3770508,8.5161,2.0937,4.4770,-0.7000,-5.3900,-1.5400,999.5697,8.4377,2.3405,4.4157,1590569029,N
77,3940058,8.5424,2.2923,4.8550,-0.5600,-0.7000,0.2100,999.5685,8.4153,2.3147,4.4716,1590569029,N
77,3805853,8.4849,2.7206,4.5631,-3.0100,5.3900,-0.4200,999.5687,8.3647,2.3854,4.5291,1590569029,N
77,3383006,8.5280,2.1320,4.2927,-3.3600,3.0800,0.7700,999.5689,8.3870,2.3243,4.5196,1590569029,N
77,3273270,8.5400,2.3115,4.4195,1.0500,-3.4300,-1.5400,999.5685,8.4127,2.3274,4.4698,1590569029,N
77,3536118,8.4945,2.4622,4.6588,3.5700,-2.2400,-1.1200,999.5681,8.4067,2.3608,4.4637,1590569029,N
77,3691438,8.5759,2.1823,4.5488,0.0700,-2.2400,0.2100,999.5674,8.4271,2.3144,4.4495,1590569029,N
78,3650022,8.5519,2.4837,4.4602,-0.0700,3.1500,0.2800,999.5670,8.4133,2.3428,4.4608,1590569029,N
77,3536234,8.5615,2.4096,4.4124,-2.1700,0.9100,1.0500,999.5671,8.4201,2.3375,4.4507,1590569029,N
77,3507424,8.5089,2.3833,4.5153,-3.0100,0.5600,1.5400,999.5670,8.4185,2.3218,4.4618,1590569029,N
77,3534577,8.5184,2.2732,4.5966,-1.5400,0.4900,0.7000,999.5671,8.4143,2.2969,4.4827,1590569030,N
77,3522293,8.5519,2.4287,4.5320,-0.7000,1.2600,0.4200,999.5679,8.4078,2.3115,4.4873,1590569030,N
77,3506411,8.6357,2.3067,4.5607,-2.2400,1.3300,1.4000,999.5692,8.4118,2.2851,4.4935,1590569030,N
77,3491811,8.5543,2.3115,4.6253,0.4200,0.7000,0.2800,999.5705,8.4068,2.2819,4.5043,1590569030,N
77,3496453,8.5328,2.2229,4.6540,-0.3500,0.0700,0.9100,999.5715,8.4079,2.2554,4.5157,1590569030,N
77,3532026,8.5807,2.2851,4.6780,-0.2100,1.1900,0.8400,999.5723,8.4017,2.2459,4.5319,1590569030,N
77,3445616,8.5448,2.6034,4.7186,4.4800,2.8700,-0.1400,999.5739,8.3735,2.3207,4.5463,1590569030,N
77,3343466,8.5519,2.3569,4.5942,-0.2100,1.4700,0.6300,999.5755,8.3740,2.3162,4.5477,1590569030,N
77,3362088,8.5807,2.0267,4.5799,-0.9100,0.1400,0.6300,999.5752,8.3949,2.2454,4.5446,1590569030,N
77,3398697,8.4682,2.1272,4.6229,0.0700,0.4900,0.0700,999.5743,8.3956,2.2189,4.5564,1590569030,N
77,3406643,8.5496,2.2684,4.6397,1.1200,-0.4900,0.2800,999.5739,8.4007,2.2214,4.5458,1590569031,N
77,3416535,8.4802,2.2708,4.6038,2.1700,0.0700,-0.8400,999.5738,8.3973,2.2390,4.5433,1590569031,N
77,3408182,8.5687,2.3210,4.5655,0.5600,0.4900,-0.9100,999.5740,8.3956,2.2561,4.5382,1590569031,N
78,3398049,8.5256,2.2708,4.5799,1.3300,0.2100,-0.5600,999.5746,8.3969,2.2612,4.5331,1590569031,N
77,3445271,8.5137,2.2134,4.5129,1.6100,-0.9100,-1.6800,999.5745,8.4047,2.2636,4.5174,1590569031,N
77,3529240,8.5519,2.3043,4.4818,4.6900,-1.0500,-1.7500,999.5740,8.4168,2.2915,4.4808,1590569031,N
77,3747188,8.5280,2.1942,4.4195,11.0600,-1.8200,-3.0100,999.5735,8.4404,2.3222,4.4202,1590569031,N
77,3880933,8.4538,2.8451,4.5320,2.8000,-1.9600,-1.3300,999.5732,8.4163,2.4301,4.4080,1590569031,N
77,3825121,8.5878,2.6225,4.3525,-1.8900,-1.4700,-0.9100,999.5734,8.4212,2.4582,4.3831,1590569031,N
77,3756222,8.5376,2.5316,4.3143,-1.4700,-1.8900,-1.1200,999.5740,8.4306,2.4691,4.3587,1590569031,N
77,3718042,8.5184,2.6369,4.3214,-1.4700,-0.4900,0.0700,999.5744,8.4316,2.4915,4.3441,1590569032,N
78,3727979,8.5974,2.3450,4.3693,-2.8000,-1.4700,0.9800,999.5749,8.4519,2.4388,4.3345,1590569032,N
78,3775862,8.6357,2.4479,4.3023,0.2800,-0.2100,0.6300,999.5752,8.4675,2.4295,4.3093,1590569032,N
78,3782982,8.6046,2.4359,4.4818,-1.4000,0.7700,3.2200,999.5753,8.4713,2.3952,4.3210,1590569032,N
