0,2445940,1.4501,-7.5350,6.1328,-0.4900,0.1400,-0.4900,999.0833,1.4476,-7.5225,6.1226,1590575523,N
0,2447177,1.4668,-7.5613,6.1687,-0.5600,0.1400,-0.4200,999.0593,1.4513,-7.5198,6.1250,1590575523,N
0,2447555,1.5218,-7.4967,6.1735,-0.2800,0.2100,-0.4900,999.0376,1.4665,-7.5081,6.1358,1590575523,N
0,131584,1.5170,-7.5039,6.1208,-0.7700,0.2100,-0.4200,999.0176,1.4781,-7.5079,6.1333,1590575523,N
0,2147483647,1.4859,-7.5087,6.1448,-0.4200,0.0700,-0.5600,999.0004,1.4822,-7.5042,6.1368,1590575524,N
0,2147483647,1.5003,-7.4991,6.1519,-0.2100,0.0700,-0.5600,998.9850,1.4884,-7.4983,6.1426,1590575524,N
0,1170379,1.5075,-7.4919,6.1376,-0.6300,0.0700,-0.4200,998.9705,1.4943,-7.4977,6.1419,1590575524,N
0,1196513,1.4955,-7.5805,6.1974,-0.5600,0.0700,-0.2800,998.9579,1.4927,-7.4998,6.1397,1590575524,N
0,1813990,1.5003,-7.5398,6.1926,-0.4200,0.0700,-0.3500,998.9465,1.4938,-7.4971,6.1427,1590575524,N
0,1909357,1.4883,-7.5182,6.1161,-0.7000,-0.0700,-0.4900,998.9363,1.4956,-7.5020,6.1362,1590575524,N
0,1911527,1.5194,-7.5087,6.1687,-0.6300,-0.0700,-0.2100,998.9273,1.5008,-7.5013,6.1358,1590575524,N
0,1909908,1.4572,-7.5589,6.1902,-0.5600,0.1400,-0.4200,998.9189,1.4916,-7.5009,6.1386,1590575524,N
0,1909483,1.5362,-7.5494,6.1615,-0.4900,0.1400,-0.4900,998.9116,1.5008,-7.4999,6.1376,1590575524,N
0,2063774,1.4596,-7.5278,6.1974,-0.6300,0.1400,-0.2800,998.9049,1.4918,-7.4980,6.1421,1590575524,N
0,2087423,1.4548,-7.5446,6.1567,-0.4200,-0.0700,-0.4200,998.8988,1.4858,-7.5007,6.1402,1590575525,N
0,2080823,1.4596,-7.5565,6.1519,-0.3500,-0.0700,-0.4900,998.8934,1.4822,-7.5032,6.1380,1590575525,N
0,2080315,1.4836,-7.5733,6.2094,-0.4200,0.0700,-0.4900,998.8883,1.4819,-7.5002,6.1417,1590575525,N
0,2081076,1.5075,-7.5565,6.1496,-0.4200,0.0700,-0.3500,998.8834,1.4870,-7.5028,6.1374,1590575525,N
0,2082059,1.4907,-7.5565,6.1615,-0.4900,-0.0700,-0.5600,998.8790,1.4894,-7.5036,6.1358,1590575525,N
0,2083253,1.5170,-7.5685,6.1998,-0.4200,0.1400,-0.4900,998.8748,1.4941,-7.5000,6.1391,1590575525,N
0,2084250,1.4740,-7.5350,6.2357,-0.5600,0.2100,-0.4200,998.8710,1.4889,-7.4928,6.1491,1590575525,N
0,2082955,1.4405,-7.5350,6.1400,-0.4900,0.0700,-0.4900,998.8679,1.4810,-7.4966,6.1463,1590575525,N
0,2081283,1.4955,-7.5805,6.1974,-0.5600,0.0700,-0.5600,998.8651,1.4837,-7.4967,6.1456,1590575525,N
0,2080869,1.4907,-7.5326,6.2046,-0.3500,0.1400,-0.6300,998.8626,1.4860,-7.4901,6.1531,1590575525,N
0,2081461,1.4955,-7.5182,6.1448,-0.4200,0.0700,-0.4900,998.8607,1.4897,-7.4911,6.1509,1590575526,N
0,2081789,1.4572,-7.5613,6.1663,-0.4200,0.0700,-0.4900,998.8589,1.4839,-7.4942,6.1486,1590575526,N
0,2082314,1.4477,-7.5876,6.1591,-0.3500,0.2100,-0.4900,998.8572,1.4763,-7.4985,6.1452,1590575526,N
0,2082828,1.5529,-7.5398,6.1663,-0.4200,0.1400,-0.4900,998.8553,1.4919,-7.4960,6.1445,1590575526,N
0,2083422,1.4548,-7.5685,6.1950,-0.4900,0.0700,-0.4900,998.8541,1.4845,-7.4964,6.1458,1590575526,N
0,2084066,1.4859,-7.5254,6.1591,-0.4900,0.1400,-0.3500,998.8523,1.4851,-7.4967,6.1452,1590575526,N
0,2082436,1.5027,-7.5637,6.2189,-0.4900,0.0700,-0.4200,998.8513,1.4875,-7.4939,6.1481,1590575526,N
0,2079952,1.5003,-7.5924,6.1591,-0.4900,0.0700,-0.3500,998.8506,1.4891,-7.5003,6.1399,1590575526,N
0,2079124,1.4883,-7.5278,6.1974,-0.2800,0.1400,-0.5600,998.8503,1.4897,-7.4935,6.1481,1590575526,N
0,2079317,1.5362,-7.5494,6.1304,-0.2800,0.0700,-0.4900,998.8488,1.5002,-7.4962,6.1422,1590575526,N
0,2079444,1.4812,-7.4608,6.2189,-0.4200,0.1400,-0.3500,998.8470,1.4972,-7.4852,6.1564,1590575527,N
0,2079765,1.4883,-7.5613,6.1543,-0.4200,0.1400,-0.4200,998.8458,1.4954,-7.4901,6.1508,1590575527,N
0,2080050,1.4644,-7.5446,6.1854,-0.5600,0.0700,-0.4900,998.8449,1.4898,-7.4909,6.1512,1590575527,N
0,2080636,1.4979,-7.4943,6.1998,-0.7000,-0.0700,-0.4200,998.8439,1.4929,-7.4874,6.1547,1590575527,N
0,2081390,1.5099,-7.5589,6.1735,-0.5600,0.2100,-0.4200,998.8439,1.4955,-7.4899,6.1510,1590575527,N
0,2080223,1.5099,-7.5446,6.1328,-0.4200,0.1400,-0.4200,998.8437,1.4991,-7.4942,6.1450,1590575527,N
0,2078022,1.5099,-7.5565,6.1950,-0.5600,0.1400,-0.4200,998.8432,1.5004,-7.4934,6.1456,1590575527,N
0,2077397,1.4907,-7.5494,6.1711,-0.4900,0.1400,-0.4200,998.8425,1.4984,-7.4945,6.1447,1590575527,N
0,2078131,1.4836,-7.4991,6.1543,-0.4900,-0.0700,-0.4900,998.8419,1.4981,-7.4936,6.1459,1590575527,N
0,2078926,1.4764,-7.5230,6.1783,-0.2800,0.0700,-0.2800,998.8411,1.4938,-7.4924,6.1484,1590575527,N
0,2079539,1.4740,-7.5685,6.2022,-0.4900,0.0700,-0.5600,998.8411,1.4899,-7.4919,6.1499,1590575528,N
0,2080516,1.4620,-7.5422,6.1352,-0.3500,0.2100,-0.3500,998.8414,1.4846,-7.4961,6.1461,1590575528,N
0,2081752,1.4788,-7.5111,6.1854,-0.4900,0.0700,-0.4900,998.8415,1.4848,-7.4922,6.1508,1590575528,N
0,2082729,1.4572,-7.4943,6.1663,-0.4900,0.1400,-0.4200,998.8416,1.4807,-7.4901,6.1543,1590575528,N
0,2081558,1.4740,-7.5398,6.1232,-0.4900,0.1400,-0.4200,998.8414,1.4805,-7.4960,6.1472,1590575528,N
0,2079893,1.5051,-7.5206,6.1831,-0.6300,0.0700,-0.4900,998.8418,1.4864,-7.4934,6.1490,1590575528,N
0,2079578,1.5242,-7.5111,6.1280,-0.4200,0.2800,-0.6300,998.8423,1.4960,-7.4919,6.1484,1590575528,N
0,2080355,1.4812,-7.5326,6.1424,-0.5600,0.0700,-0.4200,998.8429,1.4942,-7.4957,6.1443,1590575528,N
0,2081028,1.4716,-7.5159,6.1567,-0.4900,0.1400,-0.4900,998.8430,1.4912,-7.4948,6.1462,1590575528,N
0,2081553,1.4836,-7.5159,6.1974,-0.4900,0.1400,-0.5600,998.8437,1.4907,-7.4893,6.1529,1590575529,N
0,2082254,1.4261,-7.5613,6.1974,-0.5600,0.0700,-0.4200,998.8443,1.4776,-7.4918,6.1530,1590575529,N
0,2082888,1.4883,-7.5326,6.1998,-0.4900,0.0700,-0.5600,998.8449,1.4806,-7.4884,6.1564,1590575529,N
0,2083354,1.4788,-7.4824,6.1974,-0.4900,0.3500,-0.4200,998.8450,1.4804,-7.4815,6.1650,1590575529,N
0,2081669,1.4524,-7.5350,6.2237,-0.6300,-0.0700,-0.2800,998.8443,1.4743,-7.4827,6.1649,1590575529,N
0,2079197,1.4453,-7.5398,6.1567,-0.4900,0.0700,-0.4200,998.8439,1.4695,-7.4878,6.1599,1590575529,N
0,2078531,1.5482,-7.5446,6.1735,-0.4900,0.2100,-0.6300,998.8435,1.4858,-7.4862,6.1580,1590575529,N
0,2078810,1.5242,-7.5039,6.2070,-0.4200,0.2100,-0.3500,998.8429,1.4929,-7.4805,6.1631,1590575529,N
0,2079032,1.5003,-7.5254,6.1902,-0.4900,0.1400,-0.3500,998.8433,1.4940,-7.4807,6.1625,1590575529,N
0,2079446,1.4309,-7.5589,6.1854,-0.6300,0.1400,-0.7000,998.8436,1.4827,-7.4835,6.1619,1590575529,N
0,2080110,1.4692,-7.4991,6.2070,-0.5600,0.0700,-0.4200,998.8437,1.4808,-7.4803,6.1663,1590575530,N
0,2080637,1.4716,-7.6020,6.1137,-0.3500,0.0700,-0.2800,998.8439,1.4785,-7.4949,6.1490,1590575530,N
0,2081343,1.4836,-7.5613,6.1783,-0.6300,0.2800,-0.4900,998.8434,1.4788,-7.4956,6.1481,1590575530,N
0,2080114,1.5218,-7.5039,6.2189,-0.5600,0.0700,-0.4200,998.8431,1.4876,-7.4880,6.1552,1590575530,N
0,2078043,1.4788,-7.5230,6.1448,-0.4900,0.0700,-0.4200,998.8425,1.4872,-7.4912,6.1515,1590575530,N
0,2077474,1.4859,-7.5398,6.1926,-0.4900,0.0700,-0.5600,998.8424,1.4878,-7.4893,6.1537,1590575530,N
0,2078253,1.5099,-7.5494,6.2261,-0.6300,-0.1400,-0.4200,998.8429,1.4921,-7.4879,6.1543,1590575530,N
0,2079070,1.5027,-7.4895,6.1759,-0.3500,0.1400,-0.3500,998.8434,1.4950,-7.4842,6.1581,1590575530,N
0,2079656,1.5099,-7.4489,6.1376,-0.4200,0.1400,-0.5600,998.8442,1.5016,-7.4801,6.1615,1590575530,N
0,2080710,1.4524,-7.5182,6.1519,-0.4200,0.0700,-0.4900,998.8450,1.4937,-7.4833,6.1595,1590575530,N
0,2081868,1.4931,-7.5087,6.1184,-0.4200,0.2100,-0.4900,998.8448,1.4956,-7.4867,6.1549,1590575531,N
0,2082788,1.4955,-7.4991,6.1783,-0.7000,0.0700,-0.2100,998.8454,1.4955,-7.4875,6.1540,1590575531,N
0,2081897,1.4979,-7.5135,6.1902,-0.8400,0.0700,-0.4200,998.8459,1.4966,-7.4872,6.1541,1590575531,N
0,2079943,1.4620,-7.5374,6.1663,-0.4900,0.1400,-0.4900,998.8463,1.4905,-7.4890,6.1533,1590575531,N
0,2079504,1.4788,-7.5206,6.1567,-0.7000,0.1400,-0.4900,998.8467,1.4894,-7.4909,6.1513,1590575531,N
0,2079961,1.5123,-7.4824,6.1711,-0.3500,0.0700,-0.4200,998.8466,1.4957,-7.4861,6.1557,1590575531,N
0,2080514,1.4907,-7.5182,6.1400,-0.4900,0.0700,-0.4900,998.8466,1.4966,-7.4889,6.1520,1590575531,N
0,2081174,1.5242,-7.5206,6.1017,-0.3500,0.2800,-0.4900,998.8468,1.5038,-7.4924,6.1460,1590575531,N
0,2081953,1.5505,-7.5422,6.1878,-0.2800,0.0700,-0.4200,998.8472,1.5129,-7.4894,6.1474,1590575531,N
0,2082495,1.5242,-7.5087,6.1496,-0.4900,0.0700,-0.4900,998.8477,1.5169,-7.4891,6.1467,1590575531,N
0,2083399,1.5362,-7.5230,6.1926,-0.2800,0.2800,-0.4200,998.8478,1.5201,-7.4839,6.1523,1590575532,N
0,2082110,1.5051,-7.5254,6.2166,-0.7000,-0.0700,-0.4200,998.8473,1.5175,-7.4827,6.1545,1590575532,N
0,2079642,1.4501,-7.5422,6.1735,-0.4200,0.2800,-0.6300,998.8469,1.5049,-7.4830,6.1571,1590575532,N
0,2078290,1.5482,-7.4895,6.2261,-0.5600,-0.0700,-0.4200,998.8465,1.5143,-7.4763,6.1629,1590575532,N
0,2078548,1.5314,-7.5805,6.2309,-0.5600,-0.0700,-0.4200,998.8464,1.5164,-7.4784,6.1599,1590575532,N
0,2078924,1.4836,-7.5829,6.1543,-0.5600,0.0700,-0.5600,998.8467,1.5104,-7.4867,6.1513,1590575532,N
0,2079234,1.5003,-7.4919,6.1711,-0.4900,0.1400,-0.4900,998.8470,1.5100,-7.4836,6.1552,1590575532,N
0,2079818,1.5147,-7.5278,6.2046,-0.1400,-0.0700,-0.0700,998.8477,1.5096,-7.4831,6.1559,1590575532,N
0,2080622,1.5003,-7.5757,6.1735,-0.1400,-0.0700,-0.2800,998.8490,1.5071,-7.4883,6.1502,1590575532,N
0,2081380,1.4883,-7.5111,6.1831,-0.1400,0.1400,-0.0700,998.8503,1.5021,-7.4869,6.1531,1590575532,N
0,2080521,1.4692,-7.4895,6.1735,-0.2100,0.1400,0.0700,998.8519,1.4942,-7.4869,6.1550,1590575532,N
0,2078109,1.4596,-7.5685,6.1807,-0.1400,-0.2100,0.0700,998.8535,1.4855,-7.4945,6.1479,1590575533,N
0,2077211,1.4740,-7.5517,6.1448,-0.0700,-0.2800,0.0700,998.8547,1.4828,-7.5023,6.1390,1590575533,N
0,2077940,1.4955,-7.5709,6.1400,0.0700,-0.1400,0.0700,998.8553,1.4839,-7.5085,6.1311,1590575533,N
0,2078678,1.4668,-7.4800,6.1735,0.0700,-0.0700,-0.0700,998.8558,1.4811,-7.5020,6.1398,1590575533,N
0,2079442,1.4453,-7.5757,6.1615,0.2100,-0.0700,-0.0700,998.8561,1.4728,-7.5054,6.1376,1590575533,N
0,2080293,1.4477,-7.5422,6.1831,0.2100,-0.0700,-0.2100,998.8549,1.4677,-7.5021,6.1428,1590575533,N
0,2081306,1.5266,-7.5159,6.1807,-0.0700,-0.0700,-0.0700,998.8543,1.4788,-7.4985,6.1445,1590575533,N
0,2082273,1.4907,-7.5230,6.1854,-0.0700,-0.0700,0.1400,998.8535,1.4793,-7.4983,6.1447,1590575533,N
0,2081841,1.4907,-7.5924,6.1137,-0.2800,-0.2100,0.2800,998.8533,1.4792,-7.5138,6.1257,1590575533,N
0,2079950,1.4883,-7.4991,6.0897,-0.2100,-0.2800,0.0700,998.8537,1.4827,-7.5192,6.1183,1590575534,N
0,2079143,1.5099,-7.5422,6.1687,-0.1400,-0.1400,0.0700,998.8544,1.4866,-7.5178,6.1191,1590575534,N
0,2079593,1.4548,-7.5446,6.1735,0.0700,0.0700,-0.0700,998.8555,1.4789,-7.5142,6.1253,1590575534,N
0,2080212,1.4596,-7.5350,6.1902,0.1400,0.0700,-0.2800,998.8557,1.4748,-7.5067,6.1355,1590575534,N
0,2080569,1.4596,-7.5206,6.1902,-0.0700,0.0700,-0.3500,998.8558,1.4722,-7.5002,6.1441,1590575534,N
0,2080736,1.4788,-7.5374,6.2022,0.0700,0.0700,-0.0700,998.8563,1.4717,-7.4962,6.1491,1590575534,N
67,2081344,1.5170,-7.5517,6.1902,-0.3500,-0.3500,0.1400,998.8568,1.4790,-7.5010,6.1415,1590575534,N
66,2082256,1.5003,-7.5182,6.2213,-0.1400,-0.2100,0.1400,998.8564,1.4813,-7.4974,6.1453,1590575534,N
66,2081838,1.4740,-7.5805,6.1974,-0.2100,-0.0700,0.0700,998.8569,1.4768,-7.5017,6.1412,1590575534,N
66,2079594,1.4764,-7.5829,6.2237,-0.3500,-0.2100,-0.0700,998.8573,1.4745,-7.5032,6.1399,1590575534,N
66,2077863,1.4261,-7.5015,6.1424,-0.3500,-0.2100,0.0700,998.8572,1.4654,-7.5077,6.1366,1590575535,N
66,2078105,1.4764,-7.5159,6.1950,-0.3500,-0.0700,0.0700,998.8565,1.4661,-7.5055,6.1391,1590575535,N
66,2078661,1.4812,-7.5661,6.1854,0.0700,0.0700,-0.1400,998.8557,1.4673,-7.5038,6.1409,1590575535,N
66,2079248,1.4907,-7.5709,6.1232,-0.0700,0.0700,-0.1400,998.8555,1.4711,-7.5094,6.1331,1590575535,N
66,2079907,1.4979,-7.5374,6.1926,-0.1400,0.0700,-0.1400,998.8560,1.4751,-7.5047,6.1379,1590575535,N
66,2080844,1.4692,-7.5278,6.1496,-0.2100,-0.1400,0.1400,998.8563,1.4729,-7.5087,6.1335,1590575535,N
66,2081862,1.5003,-7.5805,6.1424,-0.1400,-0.1400,0.1400,998.8557,1.4762,-7.5159,6.1239,1590575535,N
66,2082082,1.5362,-7.5302,6.1950,0.1400,-0.1400,0.1400,998.8549,1.4860,-7.5100,6.1288,1590575535,N
66,2080252,1.4596,-7.4991,6.1831,0.0700,-0.1400,0.1400,998.8544,1.4799,-7.5061,6.1351,1590575535,N
66,2078826,1.4883,-7.5206,6.1878,0.0700,-0.2100,0.2800,998.8530,1.4795,-7.5051,6.1364,1590575535,N
66,2079240,1.4764,-7.5517,6.1591,0.0700,-0.1400,0.3500,998.8525,1.4760,-7.5100,6.1312,1590575536,N
66,2079989,1.4859,-7.5087,6.1735,-0.4900,-0.3500,0.6300,998.8526,1.4749,-7.5155,6.1247,1590575536,N
66,2080894,1.4596,-7.5876,6.1591,-0.4900,-0.1400,0.6300,998.8524,1.4665,-7.5272,6.1123,1590575536,N
66,2081956,1.4955,-7.5876,6.1352,-0.6300,-0.5600,0.3500,998.8527,1.4704,-7.5389,6.0970,1590575536,N
66,2083750,1.5314,-7.5852,6.0706,-0.7700,-0.7700,-0.1400,998.8525,1.4855,-7.5513,6.0780,1590575536,N
66,2086068,1.4596,-7.5924,6.1256,-0.2100,-0.7000,-0.2800,998.8524,1.4830,-7.5535,6.0758,1590575536,N
66,2087935,1.4668,-7.4943,6.0945,-0.0700,-0.2800,-0.2800,998.8528,1.4836,-7.5470,6.0838,1590575536,N
66,2088005,1.4644,-7.5230,6.1591,0.1400,0.1400,-0.3500,998.8530,1.4805,-7.5340,6.1007,1590575536,N
66,2087256,1.5242,-7.6738,6.1448,0.1400,0.1400,-0.1400,998.8531,1.4852,-7.5374,6.0952,1590575536,N
66,2086380,1.4883,-7.5948,6.1472,0.2100,0.1400,0.0700,998.8536,1.4826,-7.5357,6.0980,1590575536,N
66,2086050,1.4620,-7.5350,6.1615,-0.1400,0.1400,0.0700,998.8536,1.4764,-7.5307,6.1057,1590575537,N
66,2086079,1.5769,-7.5589,6.1543,-0.1400,0.2100,-0.3500,998.8533,1.4954,-7.5228,6.1108,1590575537,N
66,2086052,1.5434,-7.6140,6.1759,-0.2100,0.2100,0.0700,998.8534,1.5000,-7.5236,6.1087,1590575537,N
66,2086202,1.4501,-7.5589,6.1543,-0.1400,-0.1400,0.2100,998.8528,1.4879,-7.5265,6.1080,1590575537,N
66,2086596,1.4429,-7.5589,6.1472,-0.2100,-0.1400,0.0700,998.8525,1.4778,-7.5291,6.1073,1590575537,N
66,2086135,1.4357,-7.5589,6.1184,-0.2100,-0.1400,0.0700,998.8522,1.4688,-7.5340,6.1035,1590575537,N
66,2083900,1.4524,-7.5230,6.1065,-0.1400,-0.0700,0.0700,998.8521,1.4656,-7.5349,6.1031,1590575537,N
66,2082393,1.4644,-7.5565,6.1232,-0.1400,-0.0700,0.0700,998.8517,1.4644,-7.5366,6.1013,1590575537,N
66,2082268,1.4907,-7.5517,6.1424,0.1400,-0.1400,0.0700,998.8519,1.4686,-7.5338,6.1037,1590575537,N
66,2082609,1.4692,-7.5374,6.1615,-0.1400,-0.1400,0.0700,998.8522,1.4677,-7.5307,6.1077,1590575537,N
66,2083027,1.4788,-7.5446,6.1137,-0.0700,-0.1400,0.0700,998.8524,1.4696,-7.5328,6.1047,1590575537,N
66,2083780,1.4524,-7.5852,6.1304,0.1400,-0.1400,-0.0700,998.8528,1.4656,-7.5345,6.1036,1590575538,N
66,2084705,1.5099,-7.5446,6.1376,0.1400,-0.0700,-0.1400,998.8525,1.4745,-7.5295,6.1077,1590575538,N
66,2085598,1.5147,-7.5661,6.1759,0.0700,-0.0700,0.0700,998.8530,1.4801,-7.5256,6.1111,1590575538,N
66,2085319,1.5386,-7.5517,6.1328,-0.1400,-0.0700,0.0700,998.8536,1.4903,-7.5260,6.1080,1590575538,N
66,2083586,1.4357,-7.5924,6.1448,-0.1400,-0.1400,0.0700,998.8539,1.4776,-7.5314,6.1046,1590575538,N
65,2082826,1.4883,-7.5422,6.1687,-0.7000,-0.3500,0.0700,998.8539,1.4791,-7.5324,6.1029,1590575538,N
66,2083151,1.5529,-7.5781,6.1448,-0.2100,-0.2800,0.0700,998.8543,1.4923,-7.5337,6.0981,1590575538,N
66,2083555,1.4692,-7.5494,6.1089,0.2100,-0.0700,0.0700,998.8547,1.4871,-7.5343,6.0987,1590575538,N
66,2083919,1.5003,-7.5565,6.1161,-0.0700,-0.0700,-0.0700,998.8551,1.4895,-7.5344,6.0980,1590575538,N
65,2084369,1.5051,-7.5900,6.1304,-0.0700,-0.0700,-0.1400,998.8542,1.4917,-7.5351,6.0965,1590575539,N
66,2085005,1.4859,-7.5733,6.0993,-0.0700,-0.1400,-0.1400,998.8538,1.4910,-7.5382,6.0929,1590575539,N
66,2085536,1.4907,-7.5637,6.0921,-0.0700,-0.0700,-0.1400,998.8525,1.4914,-7.5400,6.0905,1590575539,N
66,2085026,1.4644,-7.5733,6.1113,-0.1400,-0.0700,-0.1400,998.8518,1.4860,-7.5414,6.0901,1590575539,N
66,2082939,1.4548,-7.5470,6.0969,0.0700,-0.0700,-0.0700,998.8514,1.4804,-7.5414,6.0915,1590575539,N
65,2081371,1.4668,-7.5781,6.0658,0.2100,0.1400,-0.0700,998.8514,1.4773,-7.5446,6.0883,1590575539,N
66,2080808,1.4979,-7.5972,6.0873,0.2100,0.0700,-0.2800,998.8504,1.4815,-7.5447,6.0872,1590575539,N
66,2080434,1.4812,-7.5374,6.1352,0.4200,0.1400,-0.1400,998.8489,1.4810,-7.5352,6.0990,1590575539,N
66,2080100,1.5147,-7.5900,6.1615,-0.3500,0.0700,-0.1400,998.8481,1.4855,-7.5334,6.1001,1590575539,N
66,2080276,1.5027,-7.5374,6.1161,-0.3500,-0.0700,-0.1400,998.8478,1.4895,-7.5331,6.0995,1590575539,N
66,2080772,1.4859,-7.5565,6.1687,-0.5600,-0.2100,-0.1400,998.8478,1.4884,-7.5318,6.1014,1590575540,N
66,2081700,1.4836,-7.5661,6.1567,-0.5600,-0.3500,-0.0700,998.8484,1.4873,-7.5340,6.0989,1590575540,N
66,2082269,1.4405,-7.5948,6.1400,-0.3500,-0.4900,0.1400,998.8484,1.4772,-7.5420,6.0915,1590575540,N
66,2081247,1.4836,-7.6379,6.1472,-1.1200,-0.3500,0.3500,998.8494,1.4743,-7.5555,6.0755,1590575540,N
66,2080668,1.4237,-7.6331,6.0227,-0.2800,-0.4900,-0.0700,998.8496,1.4659,-7.5716,6.0574,1590575540,N
66,2082470,1.4836,-7.6905,6.0634,1.1200,-0.2100,-0.8400,998.8500,1.4725,-7.5682,6.0601,1590575540,N
66,2084751,1.5051,-7.4776,6.0945,1.1200,-0.0700,-0.7000,998.8511,1.4850,-7.5451,6.0858,1590575540,N
66,2087006,1.5529,-7.5159,6.1280,0.1400,-0.2100,-0.3500,998.8516,1.5011,-7.5346,6.0948,1590575540,N
66,2089000,1.5434,-7.5565,6.0826,0.7000,0.0700,-1.1200,998.8518,1.5153,-7.5234,6.1051,1590575540,N
66,2090782,1.5123,-7.5230,6.2285,0.7700,-0.3500,0.0700,998.8515,1.5137,-7.5098,6.1223,1590575540,N
66,2092342,1.5266,-7.5637,6.2094,-0.2800,0.1400,0.4200,998.8518,1.5102,-7.5098,6.1231,1590575541,N
66,2092655,1.4381,-7.5781,6.0969,-0.2800,0.1400,0.7000,998.8514,1.4904,-7.5259,6.1081,1590575541,N
66,2090284,1.5290,-7.6283,6.1591,0.3500,0.0700,-0.0700,998.8508,1.4948,-7.5256,6.1075,1590575541,N
66,2087971,1.5434,-7.5661,6.1807,0.4900,0.0700,-0.2100,998.8502,1.5029,-7.5160,6.1174,1590575541,N
66,2087069,1.4836,-7.4608,6.2142,0.4200,0.1400,0.4900,998.8503,1.4954,-7.5034,6.1346,1590575541,N
66,2086764,1.5123,-7.5374,6.1017,-0.4200,0.2100,0.4200,998.8511,1.4951,-7.5136,6.1222,1590575541,N
66,2085885,1.5123,-7.5781,6.1424,-0.2100,0.3500,0.2800,998.8514,1.4935,-7.5180,6.1171,1590575541,N
66,2084771,1.5123,-7.5924,6.1232,-0.0700,0.3500,0.2100,998.8521,1.4926,-7.5233,6.1109,1590575541,N
66,2083401,1.4596,-7.5039,6.1496,-0.4900,0.2100,0.2800,998.8519,1.4833,-7.5226,6.1139,1590575541,N
66,2082054,1.4788,-7.4752,6.1639,-0.0700,0.2800,0.1400,998.8520,1.4806,-7.5140,6.1252,1590575541,N
66,2079831,1.5003,-7.5661,6.1424,-0.0700,0.0700,0.1400,998.8510,1.4818,-7.5173,6.1208,1590575542,N
66,2076209,1.4668,-7.5637,6.1902,-0.2100,-0.0700,0.1400,998.8499,1.4760,-7.5176,6.1219,1590575542,N
66,2074248,1.4453,-7.5589,6.1639,-0.2800,-0.0700,0.1400,998.8497,1.4677,-7.5209,6.1199,1590575542,N
66,2073798,1.4285,-7.5398,6.1950,-0.2800,0.0700,0.1400,998.8496,1.4571,-7.5185,6.1253,1590575542,N
66,2073735,1.4644,-7.5733,6.1759,-0.2800,-0.3500,0.2800,998.8491,1.4561,-7.5239,6.1189,1590575542,N
66,2074602,1.4405,-7.5996,6.1519,-0.4200,-0.2100,0.0700,998.8494,1.4511,-7.5315,6.1108,1590575542,N
66,2075903,1.4596,-7.5613,6.1376,-0.0700,-0.0700,-0.0700,998.8495,1.4522,-7.5314,6.1106,1590575542,N
67,2076842,1.4907,-7.6283,6.1639,0.0700,-0.0700,0.0700,998.8489,1.4564,-7.5339,6.1065,1590575542,N
66,2077273,1.4907,-7.5876,6.0897,0.2100,0.2100,-0.0700,998.8486,1.4618,-7.5362,6.1024,1590575542,N
66,2076269,1.4931,-7.5541,6.1854,0.1400,0.2100,-0.2100,998.8477,1.4663,-7.5253,6.1147,1590575542,N
66,2073790,1.4883,-7.5494,6.1519,-0.0700,0.1400,-0.3500,998.8473,1.4708,-7.5200,6.1202,1590575542,N
67,2071773,1.4692,-7.5589,6.1328,0.0700,0.0700,-0.3500,998.8477,1.4711,-7.5184,6.1221,1590575543,N
66,2071466,1.4453,-7.6259,6.1759,0.2100,0.0700,-0.2100,998.8482,1.4636,-7.5193,6.1227,1590575543,N
66,2071222,1.4166,-7.5470,6.1807,-0.1400,0.0700,0.2100,998.8484,1.4512,-7.5193,6.1258,1590575543,N
66,2071317,1.4548,-7.5900,6.1280,0.2800,0.2800,0.2100,998.8490,1.4480,-7.5233,6.1216,1590575543,N
67,2072135,1.4333,-7.5757,6.1304,-0.7700,-0.2100,0.0700,998.8492,1.4440,-7.5332,6.1103,1590575543,N
67,2073494,1.4309,-7.5206,6.1352,-0.2100,-0.0700,0.0700,998.8494,1.4411,-7.5323,6.1121,1590575543,N
67,2074808,1.4764,-7.6092,6.1807,-0.2100,-0.0700,0.0700,998.8505,1.4448,-7.5334,6.1099,1590575543,N
67,2073781,1.4309,-7.5924,6.1831,-0.1400,-0.0700,-0.0700,998.8512,1.4401,-7.5322,6.1124,1590575543,N
67,2072212,1.4644,-7.5446,6.1448,0.0700,-0.0700,-0.0700,998.8511,1.4447,-7.5290,6.1153,1590575543,N
67,2071772,1.5362,-7.5398,6.1496,0.0700,-0.0700,-0.2100,998.8508,1.4631,-7.5228,6.1186,1590575544,N
67,2072266,1.4764,-7.5972,6.1496,0.0700,-0.0700,-0.0700,998.8510,1.4642,-7.5251,6.1155,1590575544,N
67,2072452,1.4716,-7.5805,6.1543,-0.1400,-0.2100,-0.0700,998.8511,1.4648,-7.5272,6.1128,1590575544,N
67,2072914,1.4237,-7.5996,6.1639,-0.0700,-0.2100,0.0700,998.8510,1.4547,-7.5313,6.1101,1590575544,N
67,2073485,1.4022,-7.5972,6.1783,0.2100,-0.2100,-0.1400,998.8505,1.4435,-7.5303,6.1141,1590575544,N
67,2073990,1.4788,-7.5398,6.1615,-0.2100,-0.1400,-0.0700,998.8500,1.4502,-7.5271,6.1163,1590575544,N
67,2074349,1.4189,-7.5733,6.1567,-0.0700,0.0700,-0.0700,998.8498,1.4424,-7.5272,6.1181,1590575544,N
67,2072313,1.4429,-7.5661,6.1400,0.0700,0.0700,-0.0700,998.8493,1.4414,-7.5269,6.1187,1590575544,N
66,2069960,1.4620,-7.5733,6.1735,0.0700,-0.1400,-0.0700,998.8491,1.4443,-7.5248,6.1205,1590575544,N
67,2068968,1.4357,-7.4991,6.1376,-0.0700,-0.1400,-0.0700,998.8481,1.4439,-7.5219,6.1242,1590575544,N
67,2069080,1.4572,-7.5589,6.1400,-0.1400,-0.1400,0.0700,998.8475,1.4455,-7.5253,6.1197,1590575545,N
67,2069313,1.4357,-7.5589,6.0849,-0.1400,0.0700,-0.0700,998.8470,1.4435,-7.5315,6.1126,1590575545,N
67,2069690,1.4812,-7.5589,6.1472,-0.1400,0.0700,-0.2100,998.8473,1.4505,-7.5282,6.1149,1590575545,N
67,2070132,1.4548,-7.5924,6.1639,-0.1400,0.0700,-0.2100,998.8470,1.4498,-7.5274,6.1161,1590575545,N
67,2070722,1.4692,-7.5972,6.1352,-0.2100,0.0700,-0.1400,998.8471,1.4521,-7.5305,6.1117,1590575545,N
67,2071611,1.4812,-7.5733,6.1424,-0.2100,-0.0700,-0.1400,998.8472,1.4573,-7.5309,6.1100,1590575545,N
67,2070357,1.4883,-7.5781,6.1280,-0.2100,-0.1400,0.1400,998.8473,1.4616,-7.5355,6.1033,1590575545,N
67,2068703,1.4405,-7.5781,6.1232,-0.0700,-0.0700,-0.0700,998.8472,1.4568,-7.5378,6.1017,1590575545,N
67,2068415,1.4907,-7.5446,6.1161,0.0700,-0.0700,-0.1400,998.8470,1.4641,-7.5350,6.1033,1590575545,N
67,2069493,1.5003,-7.5637,6.1639,0.1400,-0.0700,-0.0700,998.8471,1.4701,-7.5298,6.1083,1590575545,N
67,2070335,1.4859,-7.5781,6.1663,0.1400,-0.0700,-0.0700,998.8471,1.4717,-7.5269,6.1115,1590575546,N
67,2071066,1.4740,-7.5350,6.1639,0.1400,-0.0700,-0.1400,998.8476,1.4721,-7.5210,6.1187,1590575546,N
67,2072182,1.4405,-7.5805,6.1687,-0.1400,-0.2100,-0.0700,998.8474,1.4649,-7.5232,6.1176,1590575546,N
67,2073503,1.4477,-7.5709,6.1902,0.0700,-0.1400,-0.0700,998.8475,1.4601,-7.5205,6.1222,1590575546,N
67,2074597,1.4572,-7.5900,6.1567,-0.0700,-0.1400,0.0700,998.8475,1.4575,-7.5247,6.1176,1590575546,N
67,2073071,1.4309,-7.5709,6.1041,0.0700,0.1400,-0.1400,998.8468,1.4518,-7.5280,6.1149,1590575546,N
67,2071406,1.4381,-7.5661,6.1543,0.0700,0.1400,-0.2800,998.8469,1.4485,-7.5242,6.1204,1590575546,N
67,2070967,1.4548,-7.5852,6.1519,0.0700,-0.0700,-0.2800,998.8467,1.4497,-7.5237,6.1206,1590575546,N
67,2071299,1.4931,-7.5111,6.1926,0.0700,-0.0700,-0.1400,998.8467,1.4582,-7.5137,6.1310,1590575546,N
67,2071456,1.4644,-7.5900,6.1807,0.0700,-0.1400,-0.1400,998.8467,1.4582,-7.5143,6.1302,1590575546,N
67,2072146,1.4859,-7.5541,6.1615,-0.2100,-0.0700,-0.1400,998.8467,1.4631,-7.5144,6.1288,1590575547,N
67,2072652,1.4285,-7.5374,6.1448,-0.1400,-0.1400,-0.1400,998.8461,1.4569,-7.5161,6.1284,1590575547,N
67,2073061,1.4405,-7.5733,6.1352,-0.2100,-0.1400,0.0700,998.8458,1.4524,-7.5230,6.1209,1590575547,N
67,2073558,1.4548,-7.5685,6.0993,-0.0700,-0.0700,0.1400,998.8451,1.4517,-7.5307,6.1116,1590575547,N
67,2071779,1.4596,-7.5613,6.1376,-0.1400,-0.1400,0.1400,998.8450,1.4518,-7.5333,6.1084,1590575547,N
67,2069680,1.4524,-7.5135,6.1711,0.1400,-0.0700,-0.0700,998.8452,1.4520,-7.5247,6.1189,1590575547,N
67,2069278,1.5051,-7.5350,6.1974,0.2100,0.2800,-0.0700,998.8445,1.4599,-7.5134,6.1309,1590575547,N
67,2069563,1.4548,-7.5757,6.1400,0.0700,0.2800,-0.1400,998.8443,1.4570,-7.5146,6.1301,1590575547,N
67,2069577,1.4692,-7.5661,6.1950,0.0700,0.1400,-0.0700,998.8441,1.4569,-7.5106,6.1350,1590575547,N
67,2070048,1.4572,-7.5494,6.1352,-0.0700,0.2800,-0.2800,998.8439,1.4565,-7.5103,6.1355,1590575547,N
67,2070480,1.4812,-7.5541,6.1950,-0.2100,0.2800,0.0700,998.8441,1.4576,-7.5078,6.1383,1590575547,N
67,2071398,1.4524,-7.5278,6.1926,-0.2100,0.2800,-0.0700,998.8442,1.4543,-7.5034,6.1444,1590575548,N
67,2072490,1.4524,-7.5900,6.1950,-0.5600,-0.1400,0.1400,998.8442,1.4507,-7.5109,6.1361,1590575548,N
67,2071924,1.4237,-7.5470,6.0945,-0.4200,-0.1400,0.1400,998.8437,1.4450,-7.5228,6.1228,1590575548,N
67,2070253,1.4524,-7.6020,6.1878,-0.1400,-0.1400,0.1400,998.8438,1.4433,-7.5257,6.1197,1590575548,N
67,2070062,1.4883,-7.5637,6.1878,-0.1400,-0.0700,-0.0700,998.8439,1.4506,-7.5219,6.1226,1590575548,N
67,2071105,1.4477,-7.5494,6.1113,-0.1400,-0.0700,-0.0700,998.8444,1.4502,-7.5260,6.1177,1590575548,N
67,2071894,1.4907,-7.5924,6.1543,0.0700,-0.0700,-0.1400,998.8451,1.4570,-7.5259,6.1163,1590575548,N
67,2072532,1.4620,-7.5517,6.1591,-0.1400,-0.0700,-0.1400,998.8467,1.4577,-7.5239,6.1186,1590575548,N
67,2073605,1.4716,-7.5661,6.1089,0.0700,-0.2100,-0.1400,998.8474,1.4613,-7.5276,6.1131,1590575548,N
67,2074925,1.4931,-7.5709,6.1137,-0.0700,-0.2100,-0.0700,998.8474,1.4677,-7.5314,6.1069,1590575549,N
67,2075956,1.4333,-7.5613,6.1376,-0.0700,0.0700,-0.0700,998.8467,1.4599,-7.5312,6.1091,1590575549,N
67,2074683,1.4716,-7.5852,6.1519,-0.0700,0.0700,-0.0700,998.8467,1.4602,-7.5307,6.1096,1590575549,N
67,2072690,1.4692,-7.5781,6.1783,-0.2100,-0.0700,-0.0700,998.8464,1.4602,-7.5288,6.1119,1590575549,N
67,2071990,1.4596,-7.5900,6.1065,-0.0700,-0.0700,-0.1400,998.8468,1.4599,-7.5340,6.1055,1590575549,N
67,2072519,1.4524,-7.5446,6.1519,-0.1400,-0.0700,-0.1400,998.8470,1.4584,-7.5307,6.1100,1590575549,N
67,2072803,1.4955,-7.5087,6.0921,-0.0700,-0.1400,-0.1400,998.8470,1.4679,-7.5298,6.1088,1590575549,N
67,2073212,1.4357,-7.5613,6.1496,-0.0700,-0.1400,-0.0700,998.8470,1.4611,-7.5299,6.1104,1590575549,N
67,2073724,1.4357,-7.5470,6.1591,-0.0700,-0.1400,0.0700,998.8483,1.4550,-7.5290,6.1129,1590575549,N
67,2074211,1.4692,-7.5613,6.0969,-0.0700,-0.1400,-0.0700,998.8494,1.4583,-7.5335,6.1066,1590575549,N
67,2074645,1.4788,-7.6164,6.1878,-0.0700,-0.1400,-0.0700,998.8492,1.4598,-7.5327,6.1072,1590575550,N
67,2073038,1.4094,-7.5470,6.2070,-0.2100,-0.0700,-0.0700,998.8488,1.4485,-7.5266,6.1174,1590575550,N
67,2069907,1.4524,-7.5494,6.1807,-0.1400,-0.0700,0.0700,998.8484,1.4475,-7.5241,6.1207,1590575550,N
67,2068451,1.4979,-7.5517,6.1687,0.0700,-0.0700,-0.4200,998.8481,1.4585,-7.5172,6.1265,1590575550,N
67,2068271,1.4572,-7.5494,6.0945,-0.2800,-0.1400,-0.4200,998.8481,1.4610,-7.5220,6.1201,1590575550,N
67,2068230,1.4237,-7.5398,6.1328,-0.0700,0.0700,-0.0700,998.8489,1.4531,-7.5225,6.1214,1590575550,N
66,2068419,1.5027,-7.5350,6.1400,-0.2100,-0.0700,-0.1400,998.8500,1.4632,-7.5211,6.1207,1590575550,N
67,2068903,1.4285,-7.5781,6.1950,-0.0700,-0.2100,0.0700,998.8511,1.4543,-7.5216,6.1221,1590575550,N
67,2069773,1.5003,-7.5876,6.1687,-0.0700,-0.2100,0.0700,998.8514,1.4613,-7.5237,6.1179,1590575550,N
67,2070764,1.4501,-7.5781,6.1831,-0.1400,-0.2100,-0.0700,998.8511,1.4579,-7.5237,6.1188,1590575550,N
67,2070639,1.4548,-7.5230,6.1807,-0.2800,-0.1400,0.0700,998.8505,1.4563,-7.5208,6.1227,1590575551,N
66,2067972,1.4692,-7.5685,6.1950,-0.2800,-0.1400,0.0700,998.8505,1.4565,-7.5205,6.1230,1590575551,N
67,2066721,1.4907,-7.5206,6.1496,-0.0700,-0.0700,-0.1400,998.8505,1.4637,-7.5168,6.1258,1590575551,N
66,2067501,1.4548,-7.5661,6.1543,-0.0700,-0.1400,-0.1400,998.8499,1.4617,-7.5184,6.1243,1590575551,N
67,2068425,1.4142,-7.5709,6.1519,0.0700,-0.1400,-0.1400,998.8499,1.4521,-7.5204,6.1241,1590575551,N
66,2069222,1.5027,-7.5709,6.1687,0.1400,-0.1400,-0.0700,998.8496,1.4610,-7.5186,6.1243,1590575551,N
67,2070177,1.4333,-7.5374,6.1759,0.0700,0.2800,-0.2100,998.8495,1.4543,-7.5121,6.1338,1590575551,N
67,2071147,1.4788,-7.6044,6.1807,0.0700,0.0700,-0.2100,998.8499,1.4570,-7.5122,6.1331,1590575551,N
66,2072310,1.4716,-7.5398,6.2189,0.1400,-0.0700,-0.0700,998.8506,1.4584,-7.5050,6.1416,1590575551,N
67,2072176,1.4213,-7.5087,6.1567,0.1400,-0.0700,-0.0700,998.8521,1.4515,-7.5037,6.1448,1590575551,N
66,2069931,1.5003,-7.6283,6.1543,0.2100,0.0700,-0.0700,998.8532,1.4581,-7.5098,6.1357,1590575552,N
66,2068716,1.4692,-7.5350,6.1783,0.0700,0.0700,-0.1400,998.8549,1.4595,-7.5056,6.1405,1590575552,N
66,2069255,1.4429,-7.5517,6.1328,-0.0700,-0.1400,-0.0700,998.8562,1.4563,-7.5112,6.1345,1590575552,N
66,2069746,1.4405,-7.5805,6.1496,-0.0700,0.0700,-0.0700,998.8568,1.4514,-7.5152,6.1307,1590575552,N
66,2070496,1.4405,-7.5541,6.1735,0.0700,-0.0700,-0.1400,998.8559,1.4487,-7.5134,6.1335,1590575552,N
66,2071250,1.4931,-7.5446,6.1041,0.1400,0.1400,-0.0700,998.8550,1.4571,-7.5157,6.1288,1590575552,N
66,2071878,1.4501,-7.5326,6.1137,0.0700,0.1400,-0.0700,998.8531,1.4555,-7.5169,6.1277,1590575552,N
66,2072589,1.5051,-7.5517,6.1759,0.1400,0.0700,-0.0700,998.8517,1.4636,-7.5123,6.1314,1590575552,N
66,2072487,1.4788,-7.4967,6.1998,0.0700,0.0700,-0.0700,998.8511,1.4658,-7.5027,6.1426,1590575552,N
66,2069884,1.4931,-7.5661,6.1328,0.0700,0.0700,-0.0700,998.8506,1.4700,-7.5069,6.1364,1590575552,N
66,2068116,1.4477,-7.5709,6.1400,-0.0700,-0.0700,-0.0700,998.8499,1.4648,-7.5126,6.1308,1590575553,N
66,2068154,1.4548,-7.5733,6.1831,0.0700,-0.0700,-0.1400,998.8500,1.4616,-7.5117,6.1326,1590575553,N
66,2068322,1.4501,-7.5374,6.1663,0.0700,0.0700,0.1400,998.8508,1.4571,-7.5112,6.1343,1590575553,N
66,2068794,1.4572,-7.5637,6.1328,-0.1400,0.0700,0.0700,998.8525,1.4552,-7.5166,6.1281,1590575553,N
66,2069371,1.4644,-7.5613,6.1663,-0.1400,0.0700,-0.1400,998.8544,1.4557,-7.5157,6.1291,1590575553,N
66,2070001,1.4596,-7.5685,6.1400,-0.1400,0.0700,-0.0700,998.8568,1.4552,-7.5187,6.1255,1590575553,N
66,2070830,1.3998,-7.5996,6.1089,-0.0700,-0.0700,-0.0700,998.8589,1.4435,-7.5283,6.1165,1590575553,N
66,2071350,1.4644,-7.5374,6.1711,-0.2100,-0.2100,0.0700,998.8601,1.4468,-7.5264,6.1181,1590575553,N
66,2069706,1.4429,-7.5565,6.1687,-0.2100,-0.2100,0.0700,998.8597,1.4448,-7.5271,6.1177,1590575553,N
66,2068201,1.4142,-7.6140,6.2022,-0.0700,-0.1400,-0.1400,998.8583,1.4368,-7.5269,6.1198,1590575553,N
66,2068700,1.4333,-7.6092,6.1065,-0.0700,-0.0700,-0.1400,998.8578,1.4356,-7.5346,6.1106,1590575554,N
66,2070131,1.5099,-7.5757,6.1352,0.0700,-0.1400,-0.1400,998.8580,1.4500,-7.5332,6.1089,1590575554,N
66,2070996,1.4907,-7.5159,6.1424,0.0700,-0.0700,-0.1400,998.8582,1.4589,-7.5265,6.1151,1590575554,N
66,2071998,1.4931,-7.5565,6.1663,-0.0700,-0.2100,-0.0700,998.8580,1.4652,-7.5243,6.1163,1590575554,N
66,2073392,1.4716,-7.5996,6.1400,0.1400,-0.0700,-0.0700,998.8581,1.4650,-7.5271,6.1129,1590575554,N
66,2074595,1.4166,-7.6116,6.1615,0.1400,-0.0700,-0.0700,998.8586,1.4535,-7.5294,6.1127,1590575554,N
66,2075484,1.4285,-7.5374,6.1519,0.1400,-0.0700,0.0700,998.8598,1.4476,-7.5271,6.1170,1590575554,N
66,2074081,1.4596,-7.6068,6.0873,-0.1400,-0.0700,-0.0700,998.8609,1.4494,-7.5368,6.1046,1590575554,N
66,2072969,1.4668,-7.5063,6.1017,-0.2100,-0.2100,-0.0700,998.8611,1.4547,-7.5360,6.1043,1590575554,N
66,2073553,1.4381,-7.5924,6.1615,0.0700,-0.2100,-0.0700,998.8614,1.4505,-7.5358,6.1056,1590575554,N
66,2074395,1.4883,-7.5302,6.1184,-0.1400,-0.0700,-0.0700,998.8615,1.4584,-7.5338,6.1061,1590575555,N
66,2075186,1.4812,-7.6092,6.1328,0.1400,0.2100,-0.2800,998.8622,1.4614,-7.5327,6.1069,1590575555,N
66,2075912,1.4836,-7.5374,6.1878,0.1400,0.0700,-0.4200,998.8627,1.4662,-7.5202,6.1210,1590575555,N
66,2076254,1.4716,-7.5230,6.1567,0.1400,0.0700,-0.2800,998.8626,1.4679,-7.5134,6.1289,1590575555,N
66,2076476,1.5123,-7.5900,6.1472,0.0700,0.0700,-0.3500,998.8620,1.4762,-7.5134,6.1270,1590575555,N
66,2076420,1.4381,-7.5661,6.1735,0.2800,0.2100,-0.1400,998.8620,1.4667,-7.5102,6.1332,1590575555,N
66,2073904,1.4907,-7.5111,6.1711,0.2800,0.0700,-0.2100,998.8619,1.4716,-7.5024,6.1416,1590575555,N
66,2071549,1.5099,-7.5135,6.1591,0.0700,0.0700,-0.1400,998.8622,1.4790,-7.4988,6.1441,1590575555,N
66,2070848,1.4836,-7.5829,6.2333,-0.0700,0.0700,-0.0700,998.8618,1.4764,-7.4966,6.1475,1590575555,N
66,2071134,1.4668,-7.5494,6.1974,-0.0700,0.0700,-0.1400,998.8604,1.4729,-7.4953,6.1499,1590575555,N
66,2071252,1.4788,-7.5326,6.1783,-0.1400,0.1400,-0.0700,998.8581,1.4724,-7.4950,6.1504,1590575556,N
66,2071365,1.4524,-7.5446,6.1711,-0.3500,-0.0700,-0.2100,998.8565,1.4684,-7.4983,6.1474,1590575556,N
66,2071517,1.5051,-7.5326,6.1807,-0.0700,-0.0700,0.0700,998.8556,1.4740,-7.4985,6.1458,1590575556,N
66,2071957,1.5170,-7.5685,6.1926,-0.5600,-0.3500,0.2800,998.8555,1.4796,-7.5063,6.1349,1590575556,N
66,2072538,1.4429,-7.5661,6.1950,-0.1400,-0.3500,0.0700,998.8561,1.4710,-7.5097,6.1328,1590575556,N
66,2071264,1.4620,-7.5517,6.1663,-0.1400,-0.0700,-0.0700,998.8575,1.4683,-7.5108,6.1321,1590575556,N
66,2068885,1.4859,-7.5781,6.1854,0.0700,-0.0700,-0.1400,998.8593,1.4703,-7.5097,6.1329,1590575556,N
66,2068101,1.4548,-7.5350,6.1807,0.0700,-0.0700,-0.2800,998.8599,1.4677,-7.5053,6.1389,1590575556,N
66,2068947,1.4979,-7.5805,6.1783,0.0700,-0.0700,0.0700,998.8609,1.4710,-7.5076,6.1353,1590575556,N
66,2069750,1.4620,-7.4967,6.1496,-0.0700,-0.0700,0.0700,998.8620,1.4691,-7.5070,6.1366,1590575556,N
66,2070583,1.4812,-7.5326,6.1831,-0.2800,-0.1400,0.0700,998.8633,1.4701,-7.5073,6.1359,1590575557,N
66,2071528,1.3926,-7.5565,6.1902,0.1400,0.0700,-0.2100,998.8650,1.4538,-7.5051,6.1425,1590575557,N
66,2072568,1.4046,-7.4225,6.1567,-0.5600,0.5600,-0.2100,998.8668,1.4445,-7.4962,6.1555,1590575557,N
66,2072396,1.5003,-7.7384,6.1352,-1.4700,-0.4900,0.9100,998.8671,1.4467,-7.5355,6.1069,1590575557,N
66,2070344,1.5194,-7.6427,6.1424,-2.8000,-2.3100,1.6100,998.8672,1.4571,-7.5811,6.0477,1590575557,N
66,2070367,1.5003,-7.6211,6.0299,0.0700,-2.7300,0.9800,998.8677,1.4702,-7.6072,6.0116,1590575557,N
66,2073845,1.5697,-7.8006,6.1567,2.0300,-2.6600,-2.8700,998.8679,1.5103,-7.5861,6.0283,1590575557,N
66,2078271,1.4572,-7.9466,6.8459,29.9600,-11.9000,-9.9400,998.8680,1.5935,-7.3550,6.2877,1590575557,N
66,2085997,1.2514,-7.4680,8.1500,37.3100,-62.5100,-7.3500,998.8684,1.8977,-7.2841,6.2857,1590575557,N
66,2097940,2.6847,-7.5398,7.5015,86.8000,-79.0300,-45.2900,998.8680,2.6785,-6.5629,6.7767,1590575557,N
66,2104331,4.3071,-5.3384,8.0973,-27.2300,-112.9800,-37.1000,998.8669,3.7282,-6.4072,6.4202,1590575558,N
66,2112063,5.5848,-8.1021,4.9316,-74.4100,-121.8700,-111.5800,998.8658,5.1927,-6.4413,5.2647,1590575558,N
66,2122901,7.4704,-5.4628,2.8762,-73.7800,-89.6700,-176.2600,998.8645,7.0457,-5.5686,3.9394,1590575558,N
66,2129611,8.7386,-1.7659,1.4046,-75.2500,-31.9200,-228.0600,998.8643,8.7189,-3.4821,2.8332,1590575558,N
66,2130790,8.3844,1.8329,1.0074,-67.3400,41.9300,-236.0400,998.8643,9.4447,-1.0225,2.4337,1590575558,N
66,2131075,6.1878,5.7165,1.8951,1.0500,108.9900,-229.4600,998.8644,9.3392,1.7129,2.4526,1590575558,N
66,2128577,1.5625,9.9541,4.0630,-38.0800,118.0900,-156.6600,998.8641,8.4441,3.7634,3.2719,1590575558,N
66,2125988,-1.4859,10.1504,5.2044,-14.0700,53.3400,-67.6900,998.8636,7.2913,5.1906,4.0080,1590575558,N
66,2124618,-0.0407,5.7882,6.1902,-53.3400,18.1300,-51.2400,998.8627,6.2178,6.3989,4.0699,1590575558,N
66,2125507,-0.9332,7.5829,7.2239,-42.1400,13.0200,-24.9900,998.8618,4.6269,7.5539,4.2072,1590575558,N
66,2126521,-0.2656,5.2953,7.0493,-42.6300,15.9600,-2.5900,998.8598,3.8813,7.7089,4.6561,1590575559,N
66,2129330,-0.8614,5.5131,7.5039,-23.5900,10.3600,-1.3300,998.8575,2.5280,8.2487,4.6625,1590575559,N
67,2131648,-1.5194,4.8574,8.9109,-6.9300,2.7300,2.3100,998.8550,1.0925,9.5576,1.9053,1590575559,N
67,2134919,-0.7107,4.4578,6.7023,90.3700,2.8700,9.5900,998.8516,0.3133,4.0536,8.9242,1590575559,N
66,2140707,-1.3065,6.5755,6.7502,1.0500,-3.8500,9.3100,998.8481,0.1046,-1.6915,9.6591,1590575559,N
67,2144012,-0.6341,8.2050,6.0084,-37.5200,-13.8600,11.9000,998.8450,0.0716,-1.0156,9.7537,1590575559,N
67,2143643,1.2610,6.7047,7.5829,-7.6300,-3.7100,-12.8800,998.8419,0.2188,6.0354,7.7263,1590575559,N
66,2146414,0.8351,5.5801,7.2861,1.1900,-5.1800,-16.6600,998.8386,0.3032,6.3790,7.4423,1590575559,N
66,2156011,-0.3446,7.3819,6.2955,48.4400,16.6600,-23.3800,998.8368,0.0731,1.8703,9.6264,1590575559,N
66,2162629,-1.6965,8.8271,6.5946,64.8900,3.9900,-8.2600,998.8357,-0.2312,5.1820,8.3225,1590575559,N
66,2166709,-1.1270,10.1384,4.2281,-23.5200,-35.7000,17.1500,998.8345,-0.0372,3.9356,8.9822,1590575560,N
66,2167526,0.8088,7.6235,5.1637,-24.0100,-15.1900,61.1100,998.8326,0.4594,6.4545,7.3688,1590575560,N
66,2169348,1.4979,6.0993,4.4889,109.4800,25.0600,26.7400,998.8314,0.6343,6.6235,7.2040,1590575560,N
66,2173463,1.0169,6.8028,4.6373,40.9500,37.8700,-32.2700,998.8294,0.3265,6.4712,7.3612,1590575560,N
66,2178025,-0.8231,6.9631,5.1709,-28.6300,27.5800,-43.0500,998.8282,-0.1233,8.8460,4.2312,1590575560,N
66,2180287,-1.8640,8.8247,4.1563,35.4200,10.5700,-47.8100,998.8270,-0.8321,8.1438,5.3997,1590575560,N
66,2180510,-3.0604,8.0949,2.4861,64.4000,13.6500,-36.6100,998.8259,-1.6098,8.6264,4.3777,1590575560,N
66,2179426,-3.7926,9.1143,1.6965,3.9200,18.0600,-44.7300,998.8244,-2.4130,8.6927,3.8450,1590575560,N
65,2178530,-4.3549,9.6407,1.5170,27.7900,0.8400,-31.6400,998.8228,-2.9031,8.8059,3.1936,1590575560,N
66,2177762,-3.7543,7.7049,1.9693,16.9400,3.0800,-27.9300,998.8215,-3.2227,8.7573,3.0157,1590575560,N
66,2176583,-3.9697,9.9900,1.9190,-9.3100,-4.0600,-27.5800,998.8208,-3.5054,8.6422,3.0323,1590575561,N
65,2176890,-4.3334,7.3340,2.4981,10.6400,0.7000,-11.6200,998.8204,-3.7771,8.5624,2.9309,1590575561,N
65,2178411,-4.5176,6.0036,1.2826,23.9400,10.0800,-47.3900,998.8206,-4.2871,8.4037,2.6774,1590575561,N
65,2178592,-5.3671,7.7264,0.6772,26.0400,7.0000,-27.0900,998.8211,-4.5349,8.4382,2.0979,1590575561,N
65,2178877,-6.1519,7.0899,0.8040,-1.8900,2.9400,-23.8700,998.8218,-4.9607,8.2430,1.9013,1590575561,N
65,2179336,-6.4702,7.5254,0.4834,1.1900,-7.9800,-14.6300,998.8228,-5.1668,8.1687,1.6573,1590575561,N
66,2179190,-6.8913,7.3149,0.9476,13.6500,-2.7300,-3.1500,998.8248,-5.2567,8.1522,1.4418,1590575561,N
66,2180133,-6.3960,7.4130,0.3876,9.0300,10.1500,8.0500,998.8264,-5.2093,8.2322,1.1246,1590575561,N
66,2179538,-6.0682,7.2814,0.8136,-1.4700,15.5400,11.8300,998.8275,-5.3502,8.1548,1.0224,1590575561,N
66,2179693,-5.8122,7.5326,0.5838,-13.7200,1.3300,11.4100,998.8292,-5.5288,8.0350,1.0201,1590575561,N
66,2180986,-5.2331,7.8915,0.1579,15.6800,-13.7900,-4.8300,998.8315,-5.1232,8.3252,0.7836,1590575562,N
67,2182403,-5.3169,8.1930,0.2010,-30.5200,-5.9500,-7.2100,998.8339,-5.6291,7.9805,0.8920,1590575562,N
66,2182999,-6.4702,7.3460,1.3448,-17.2900,-6.1600,-9.3800,998.8360,-6.0492,7.6379,1.1139,1590575562,N
67,2183960,-6.6042,7.3340,1.8425,-14.8400,-8.1200,-2.4500,998.8380,-6.2387,7.4413,1.3694,1590575562,N
67,2185304,-6.1711,7.3531,1.8497,-4.4100,-1.3300,4.2000,998.8398,-6.2262,7.4275,1.4955,1590575562,N
67,2186849,-5.6973,7.5924,1.6271,-15.3300,6.0900,8.8900,998.8418,-6.2442,7.3935,1.5863,1590575562,N
67,2186496,-5.6064,7.4536,1.7659,-24.2200,5.5300,7.5600,998.8443,-6.3010,7.3097,1.7422,1590575562,N
67,2183768,-5.7236,7.3220,2.2875,-10.4300,3.2900,3.3600,998.8466,-6.2579,7.3061,1.9053,1590575562,N
67,2181828,-5.7858,7.3388,2.2636,3.5700,-0.0700,1.1900,998.8490,-6.1467,7.3835,1.9680,1590575562,N
67,2181114,-5.7811,7.4752,2.1009,2.8000,0.8400,1.8200,998.8510,-6.0615,7.4500,1.9816,1590575562,N
67,2180785,-5.7021,7.6211,2.2301,2.7300,-0.6300,2.6600,998.8524,-5.9497,7.5294,2.0201,1590575563,N
67,2181637,-5.6614,7.6810,2.0530,13.2300,-2.2400,2.9400,998.8535,-5.7798,7.6763,1.9594,1590575563,N
67,2182697,-5.5896,7.7169,2.0291,-16.6600,-1.8200,6.0900,998.8539,-5.7960,7.6323,2.0795,1590575563,N
68,2184628,-5.3743,7.3723,1.9502,-24.9200,3.4300,7.1400,998.8539,-5.8768,7.5355,2.2022,1590575563,N
67,2187077,-5.4915,7.1545,2.5196,-15.6800,10.7800,2.6600,998.8535,-5.9705,7.4221,2.3316,1590575563,N
68,2187399,-5.5513,7.2646,2.7206,0.7700,5.6700,-4.0600,998.8534,-5.9680,7.4031,2.3973,1590575563,N
68,2185769,-5.5872,7.5254,2.3474,21.2800,-2.3800,-10.9900,998.8533,-5.8648,7.5193,2.2879,1590575563,N
68,2184698,-5.6136,7.2215,2.1033,25.8300,-15.1200,-7.2100,998.8532,-5.6896,7.6842,2.1799,1590575563,N
68,2184380,-5.6686,7.8700,1.3735,2.8000,-3.0100,-3.9900,998.8536,-5.6807,7.7360,2.0135,1590575563,N
67,2184315,-5.8840,7.7216,2.1057,-15.7500,10.7100,0.9100,998.8541,-5.8583,7.5848,2.0789,1590575563,N
67,2184572,-5.9294,7.2215,2.4215,-4.9000,3.4300,1.6100,998.8546,-5.9312,7.5025,2.1689,1590575564,N
68,2185166,-5.7212,7.5422,1.9478,-1.2600,2.8700,2.1700,998.8547,-5.9168,7.5263,2.1252,1590575564,N
67,2185667,-5.7476,7.5494,1.9765,-3.2900,3.6400,2.8700,998.8549,-5.9185,7.5311,2.1033,1590575564,N
67,2185654,-5.7069,7.4967,2.0770,-2.7300,1.1200,2.4500,998.8544,-5.9001,7.5422,2.1153,1590575564,N
66,2183356,-5.6949,7.4178,2.2540,-1.8200,0.9800,1.1900,998.8538,-5.8878,7.5398,2.1579,1590575564,N
67,2181139,-5.6734,7.5900,2.2301,1.0500,0.4900,0.3500,998.8537,-5.8470,7.5687,2.1677,1590575564,N
67,2180509,-5.6495,7.5541,2.0937,-3.5000,0.4200,-0.2800,998.8541,-5.8485,7.5645,2.1783,1590575564,N
67,2181019,-5.7428,7.1976,2.0291,-1.9600,1.2600,0.4200,998.8541,-5.8890,7.5351,2.1708,1590575564,N
67,2181382,-5.6710,7.4417,2.2110,-1.6800,1.1900,0.4900,998.8548,-5.8804,7.5355,2.1926,1590575564,N
66,2181978,-5.6853,7.5637,2.2277,-0.7700,0.9100,0.3500,998.8553,-5.8580,7.5495,2.2044,1590575564,N
67,2182589,-5.6279,7.5422,2.2158,-0.2800,-0.9100,-0.2100,998.8553,-5.8254,7.5704,2.2188,1590575565,N
66,2183348,-5.7093,7.4871,2.2540,-0.9100,-1.1200,-0.1400,998.8552,-5.8162,7.5708,2.2416,1590575565,N
67,2183470,-5.5298,7.4919,2.2564,-0.4200,-0.0700,-0.4900,998.8552,-5.7898,7.5860,2.2585,1590575565,N
67,2181420,-5.6710,7.5422,2.1488,0.4900,-1.1200,-1.4700,998.8544,-5.7827,7.5956,2.2447,1590575565,N
65,2179517,-5.7906,7.5589,2.2301,-1.8200,-1.6100,-1.3300,998.8541,-5.7975,7.5794,2.2610,1590575565,N
66,2179071,-5.7500,7.4632,2.3402,-1.5400,-1.1200,-0.3500,998.8535,-5.8041,7.5640,2.2954,1590575565,N
66,2179215,-5.7906,7.4512,2.4096,0.2100,1.1900,0.7700,998.8530,-5.8098,7.5536,2.3150,1590575565,N
66,2179613,-5.6112,7.5063,2.2205,1.4000,2.5900,0.9100,998.8523,-5.7915,7.5768,2.2851,1590575565,N
65,2180208,-5.6375,7.6618,2.0674,-0.7700,-0.7700,-0.7000,998.8519,-5.7749,7.5991,2.2527,1590575565,N
66,2180856,-5.6662,7.5135,2.2014,-4.4800,-3.0100,-1.9600,998.8518,-5.7906,7.5763,2.2887,1590575565,N
66,2181693,-5.7595,7.4489,2.3617,-3.9200,-2.8000,-1.8200,998.8526,-5.8136,7.5419,2.3437,1590575565,N
66,2181737,-5.7428,7.2933,2.4287,-3.6400,-0.9100,-0.0700,998.8536,-5.8386,7.5059,2.3965,1590575566,N
66,2179507,-5.8720,7.2455,2.6201,0.7000,1.4700,1.0500,998.8537,-5.8584,7.4773,2.4370,1590575566,N
65,2177542,-5.5777,7.4489,2.3689,3.0100,2.1700,2.2400,998.8535,-5.8078,7.5267,2.4059,1590575566,N
66,2176918,-5.5131,7.4991,2.2588,2.9400,2.3800,0.3500,998.8533,-5.7715,7.5690,2.3603,1590575566,N
65,2176591,-5.7093,7.3651,2.2086,4.6900,-0.1400,-1.4000,998.8533,-5.7712,7.5835,2.3140,1590575566,N
66,2176237,-5.7954,7.1713,1.9095,27.5800,-4.6200,-4.0600,998.8539,-5.6686,7.7210,2.1031,1590575566,N
65,2176194,-5.8959,7.4800,1.5075,33.8800,-8.5400,-6.5800,998.8540,-5.4945,7.9183,1.8113,1590575566,N
66,2176805,-5.9605,7.7169,0.6891,72.1000,-8.2600,-12.2500,998.8543,-4.9059,8.4172,1.1197,1590575566,N
66,2178327,-5.9797,7.5948,0.2177,55.8600,-10.9200,-8.9600,998.8549,-4.2588,8.8168,0.5442,1590575566,N
65,2178210,-6.0730,7.6881,-0.6006,50.0500,-6.8600,-5.9500,998.8553,-3.3147,9.2290,-0.0914,1590575567,N
65,2176705,-6.1639,7.5948,-0.8423,17.2200,-3.0100,-2.0300,998.8554,-2.6668,9.4291,-0.3873,1590575567,N
65,2177222,-5.8863,8.6907,-0.0814,-96.3200,1.4700,16.7300,998.8569,-4.9374,8.4622,0.4284,1590575567,N
66,2177734,-6.3099,6.9464,-0.0885,-185.4300,32.6200,23.2400,998.8589,-7.6031,6.1040,1.0511,1590575567,N
65,2174492,-5.8146,7.1856,3.5605,24.1500,5.7400,-1.2600,998.8610,-7.0247,6.6867,1.4533,1590575567,N
66,2172429,-5.7117,7.2024,1.9430,7.0000,-10.9200,-3.0100,998.8634,-6.6664,7.0099,1.6094,1590575567,N
65,2171170,-5.8050,7.6570,1.9956,4.9700,5.6000,0.4900,998.8654,-6.4870,7.1681,1.6454,1590575567,N
66,2170214,-5.9414,7.4417,2.0985,1.0500,4.9700,1.7500,998.8658,-6.3866,7.2418,1.7138,1590575567,N
66,2169553,-5.8098,7.5972,1.9430,-0.2100,-1.6100,0.7700,998.8657,-6.2506,7.3453,1.7739,1590575567,N
65,2166986,-5.7093,7.6331,2.0841,-3.7800,0.0700,0.3500,998.8657,-6.1590,7.4008,1.8615,1590575567,N
66,2162663,-5.7643,7.5278,2.1703,-2.0300,-1.1200,-0.3500,998.8660,-6.0888,7.4375,1.9443,1590575568,N
66,2159391,-5.7667,7.4824,2.1368,-1.0500,-0.4900,-0.1400,998.8658,-6.0387,7.4644,1.9969,1590575568,N
66,2157953,-5.7739,7.5182,2.2205,-0.2100,0.4900,0.1400,998.8651,-5.9942,7.4874,2.0444,1590575568,N
66,2156678,-5.7284,7.5206,2.1248,0.0700,0.2100,-0.0700,998.8649,-5.9548,7.5131,2.0649,1590575568,N
66,2155812,-5.8170,7.5398,2.1679,-0.4900,0.0700,-0.7000,998.8652,-5.9391,7.5185,2.0902,1590575568,N
66,2155354,-5.7643,7.5254,2.1392,-0.3500,-0.6300,-0.3500,998.8653,-5.9147,7.5325,2.1089,1590575568,N
65,2154991,-5.7835,7.4943,2.1631,-1.0500,0.2100,-0.3500,998.8647,-5.9092,7.5311,2.1295,1590575568,N
66,2154713,-5.8744,7.6762,2.1631,-1.6800,-0.4200,0.9100,998.8645,-5.8910,7.5414,2.1431,1590575568,N
65,2151447,-6.8315,7.8509,1.9813,-57.8900,-6.5100,18.7600,998.8636,-6.0979,7.2860,2.4290,1590575568,N
66,2147834,-7.3508,7.7551,2.5340,-168.8400,-23.1700,32.8300,998.8625,-6.2911,6.6559,3.5059,1590575568,N
65,2149484,-5.6279,6.2142,3.8812,-81.6900,-60.6900,37.5200,998.8615,-5.7988,6.5963,4.3628,1590575569,N
66,2150227,-2.1009,4.5224,4.9077,-207.9700,-75.5300,27.7200,998.8603,-5.0060,5.6231,6.2842,1590575569,N
65,2151011,0.6485,2.5077,8.4467,-197.4000,-54.4600,-6.3000,998.8589,-3.5306,4.2643,8.0945,1590575569,N
65,2152322,1.2467,-2.6512,9.5785,-194.1800,-0.1400,-13.7900,998.8575,-6.6181,6.0662,3.9462,1590575569,N
65,2153457,-0.7131,-6.8363,9.2124,-122.5000,54.4600,33.9500,998.8558,-6.9842,5.9126,3.5260,1590575569,N
66,2155078,-3.8381,-5.4174,9.7196,-3.7800,35.1400,-19.9500,998.8533,-7.7361,4.6514,3.8325,1590575569,N
66,2154327,-3.7854,-3.7854,7.4417,-30.8000,-9.8000,-7.4900,998.8498,-8.1909,2.5644,4.7438,1590575569,N
66,2152347,-2.4670,-6.6042,7.2215,-42.2100,3.8500,-11.1300,998.8469,-8.1695,0.5500,5.3970,1590575569,N
66,2150027,-3.2495,-5.8983,7.4441,-22.1200,30.3800,13.5100,998.8441,-8.0173,-0.7588,5.5962,1590575569,N
66,2150597,-2.7015,-8.8917,5.8505,143.3600,21.4900,-33.0400,998.8420,-7.7409,-1.1095,5.9175,1590575569,N
67,2152198,-2.8379,-8.3175,9.3200,-26.6000,-0.5600,11.5500,998.8411,-7.1824,-1.8945,6.4027,1590575570,N
66,2153803,-3.7137,-3.4600,8.3916,51.7300,2.6600,-8.4700,998.8409,-6.3281,-2.1896,7.1646,1590575570,N
67,2153390,-3.7519,-2.6225,8.3031,69.6500,-3.0800,6.5800,998.8406,-5.4879,-1.9676,7.8855,1590575570,N
67,2151654,-2.9623,-3.3260,8.9348,5.2500,-2.7300,-6.3700,998.8403,-4.7223,-2.2675,8.2903,1590575570,N
67,2151170,-2.9958,-3.5151,7.8772,-58.3100,-8.2600,8.6800,998.8400,-4.6095,-2.9215,8.1478,1590575570,N
67,2150908,-3.0843,-5.4150,6.8602,-50.0500,-4.9000,10.5700,998.8392,-4.5271,-3.7119,7.8675,1590575570,N
67,2147816,-2.9432,-5.9797,7.7049,-17.2200,23.3100,16.5900,998.8383,-4.4601,-4.1722,7.6727,1590575570,N
67,2147637,-3.6730,-5.2666,8.5328,43.6100,15.6100,-16.2400,998.8372,-4.1672,-4.1004,7.8735,1590575570,N
67,2147741,-3.7304,-4.8790,7.6475,85.0500,8.8200,-16.7300,998.8364,-3.8802,-3.7365,8.1947,1590575570,N
67,2145458,-3.9410,-4.8526,8.9803,-43.1900,5.5300,-0.8400,998.8355,-3.9905,-4.1645,7.9311,1590575570,N
67,2144337,-3.7950,-3.7615,8.1332,21.7700,-5.5300,-11.5500,998.8351,-3.8294,-3.9659,8.1104,1590575571,N
67,2143918,-4.2377,-2.7541,8.0207,-28.6300,6.8600,6.5800,998.8347,-4.0916,-3.9306,7.9987,1590575571,N
67,2146072,-3.5653,-4.8814,6.8076,-49.4900,-19.8100,9.3800,998.8340,-4.0638,-4.4477,7.7378,1590575571,N
68,2149474,-3.9673,-4.6947,7.8269,-60.7600,14.2100,17.5000,998.8330,-4.3056,-4.8379,7.3639,1590575571,N
67,2147047,-4.4387,-5.4126,7.8604,-4.9000,6.3000,-4.0600,998.8326,-4.2999,-4.9358,7.3021,1590575571,N
68,2145364,-4.1396,-5.1709,7.0253,32.6900,4.3400,-0.5600,998.8324,-4.2598,-4.7974,7.4168,1590575571,N
68,2146755,-4.1994,-5.1685,7.5254,32.6200,2.2400,-9.1000,998.8323,-4.1548,-4.6743,7.5537,1590575571,N
68,2147190,-4.3358,-3.9194,7.7025,6.5800,8.8200,3.7100,998.8317,-4.2690,-4.4918,7.6007,1590575571,N
68,2148005,-4.5823,-4.2233,8.3079,3.8500,-7.2100,0.5600,998.8315,-4.2303,-4.3470,7.7057,1590575571,N
68,2149136,-5.5083,-4.7258,10.0690,12.9500,-26.7400,14.6300,998.8309,-4.0773,-4.0511,7.9458,1590575571,N
68,2150866,-3.3188,-5.0345,9.0520,65.4500,-60.0600,44.5900,998.8316,-3.4381,-3.2578,8.5870,1590575572,N
68,2155852,-1.9406,-2.6034,8.1667,176.9600,-31.3600,12.6700,998.8317,-2.2506,-1.4822,9.4291,1590575572,N
68,2159824,-1.2275,-1.9525,7.8987,179.7600,-0.1400,-13.5100,998.8318,-5.8257,-2.2551,7.5595,1590575572,N
68,2160803,-2.6106,3.7735,6.9129,160.9300,23.4500,-33.0400,998.8311,-7.0959,-1.5991,6.5773,1590575572,N
67,2160472,-4.4626,5.9581,5.1709,148.3300,24.6400,-56.0700,998.8301,-7.9092,-0.3992,5.7841,1590575572,N
68,2160008,-5.7236,5.6997,4.3358,30.8000,36.0500,-52.9900,998.8288,-8.4033,0.2542,5.0488,1590575572,N
67,2160213,-6.9081,5.8768,3.9386,71.7500,23.9400,-64.8900,998.8278,-8.6547,0.9567,4.5111,1590575572,N
68,2158904,-7.8293,5.0393,2.1320,25.6900,16.8700,-8.3300,998.8279,-8.7847,1.8227,3.9595,1590575572,N
67,2156845,-7.1856,7.6953,2.9958,14.4900,2.9400,6.6500,998.8286,-8.6530,2.5552,3.8428,1590575572,N
68,2156861,-6.5803,7.3603,3.6156,1.6100,-9.8000,15.6800,998.8304,-8.2342,3.6327,3.8951,1590575572,N
67,2157071,-6.0227,6.2907,3.4624,-50.2600,-15.7500,26.1800,998.8318,-7.8015,4.2455,4.1572,1590575573,N
67,2154967,-5.1589,6.2094,3.5844,5.6700,-5.6700,11.6900,998.8331,-7.3641,4.9305,4.1989,1590575573,N
67,2152594,-5.0345,6.2955,3.7065,31.2900,2.8000,-11.2700,998.8339,-7.0786,5.4402,4.0580,1590575573,N
67,2150863,-5.4341,7.6881,3.3452,-4.3400,1.7500,1.9600,998.8351,-6.7897,5.8709,3.9502,1590575573,N
68,2150269,-5.5178,7.7623,2.9169,4.2700,8.9600,-3.8500,998.8360,-6.6212,6.2239,3.6870,1590575573,N
67,2150128,-5.8026,7.2263,2.7350,2.2400,2.6600,-3.2900,998.8368,-6.5212,6.4428,3.4834,1590575573,N
67,2150345,-6.2596,7.0947,2.7589,-1.7500,3.4300,-2.5200,998.8368,-6.5040,6.5422,3.3269,1590575573,N
67,2151078,-6.0084,7.1210,2.8762,-4.1300,1.4700,1.3300,998.8362,-6.4275,6.6532,3.2547,1590575573,N
68,2150943,-5.7165,7.1186,3.0245,-4.2000,-0.7000,1.3300,998.8361,-6.3127,6.7651,3.2487,1590575573,N
67,2147449,-5.7978,7.0923,2.9791,-2.0300,0.2800,0.2100,998.8364,-6.2396,6.8479,3.2163,1590575573,N
67,2143791,-6.0395,7.0875,3.0652,-1.2600,3.8500,-0.3500,998.8364,-6.2256,6.8797,3.1752,1590575574,N
67,2141891,-5.9868,7.0780,3.0413,1.4000,-1.2600,-1.1900,998.8363,-6.1819,6.9304,3.1504,1590575574,N
68,2141031,-5.8552,7.2670,2.8187,-3.7100,-2.4500,-2.1700,998.8367,-6.1400,6.9808,3.1208,1590575574,N
67,2140312,-5.8528,7.0899,3.1705,-7.4900,-1.8200,-4.8300,998.8369,-6.1378,6.9523,3.1881,1590575574,N
67,2140579,-6.1567,6.8459,2.9456,1.0500,-4.2000,-6.0200,998.8364,-6.1736,6.9315,3.1640,1590575574,N
67,2141210,-6.0826,6.8363,2.9504,-11.4100,-4.2700,-6.5100,998.8362,-6.2339,6.8526,3.2171,1590575574,N
68,2143016,-6.0993,6.8028,3.3571,-16.7300,-6.4400,-8.9600,998.8373,-6.2862,6.7289,3.3729,1590575574,N
68,2141236,-6.0778,6.6209,3.6108,-12.1800,-12.3900,-13.5100,998.8386,-6.3120,6.6087,3.5573,1590575574,N
68,2136745,-6.1519,6.3266,3.8022,-17.7100,-16.1700,-16.8700,998.8401,-6.3662,6.4203,3.7977,1590575574,N
68,2133524,-6.1998,5.8624,4.3358,-18.2000,-19.0400,-19.3900,998.8417,-6.4194,6.1643,4.1186,1590575574,N
68,2131704,-6.3697,5.3599,5.0536,-14.4200,-17.2900,-19.3200,998.8432,-6.4735,5.8514,4.4750,1590575575,N
68,2130471,-6.4223,4.9627,5.2690,-6.9300,-12.5300,-16.8700,998.8445,-6.5291,5.5690,4.7462,1590575575,N
68,2129588,-6.7406,4.4818,5.5490,-2.1700,-6.3000,-12.1100,998.8454,-6.6220,5.2741,4.9501,1590575575,N
68,2129276,-6.8794,4.6373,5.5920,-2.3100,-3.5000,-3.6400,998.8452,-6.6562,5.0983,5.0865,1590575575,N
68,2129239,-6.5228,4.7258,5.4604,-0.6300,1.5400,1.8900,998.8447,-6.6414,5.0383,5.1650,1590575575,N
68,2127253,-6.5659,4.8335,5.5274,4.2700,7.0000,5.8800,998.8445,-6.6291,5.0424,5.1768,1590575575,N
68,2123060,-6.5731,5.1517,5.1829,7.3500,9.1700,8.3300,998.8439,-6.6195,5.1375,5.0950,1590575575,N
69,2120836,-6.4319,5.3480,4.7163,8.8200,8.6800,8.1900,998.8435,-6.6112,5.2839,4.9541,1590575575,N
69,2122839,-6.4032,5.7643,4.8191,9.9400,3.5000,2.2400,998.8430,-6.5656,5.4294,4.8564,1590575575,N
69,2125640,-6.5037,5.5322,4.7234,-2.8000,-0.7000,-0.4200,998.8423,-6.5598,5.4404,4.8519,1590575575,N
69,2127451,-6.5850,5.3408,4.8239,-1.4700,-1.4000,-0.4200,998.8412,-6.5676,5.4182,4.8663,1590575576,N
69,2127497,-6.5492,5.3216,4.9890,0.5600,2.1000,2.1000,998.8405,-6.5639,5.4121,4.8779,1590575576,N
69,2127799,-6.5563,5.3910,4.8287,2.3100,4.2700,3.9900,998.8394,-6.5675,5.4423,4.8393,1590575576,N
69,2127166,-6.5468,5.5848,4.7665,5.2500,4.4100,5.1800,998.8383,-6.5518,5.5180,4.7746,1590575576,N
70,2124426,-6.3793,5.6590,4.3047,9.1000,4.4100,4.3400,998.8374,-6.5464,5.6404,4.6369,1590575576,N
69,2122604,-6.3218,5.8816,4.2497,2.0300,4.8300,1.8200,998.8372,-6.5404,5.7252,4.5404,1590575576,N
70,2122254,-6.5755,5.7643,4.3023,-0.5600,1.6800,-0.1400,998.8372,-6.5658,5.7348,4.4914,1590575576,N
70,2122054,-6.5922,5.7188,4.3813,-0.9800,0.0700,-0.4900,998.8369,-6.5807,5.7289,4.4772,1590575576,N
70,2122144,-6.5970,5.6949,4.4626,-1.4700,-0.7700,0.7000,998.8365,-6.5795,5.7221,4.4875,1590575576,N
70,2122657,-6.4032,5.7787,4.2808,-0.4200,1.0500,0.9100,998.8372,-6.5689,5.7567,4.4587,1590575576,N
70,2123634,-6.5013,5.8313,4.3884,-3.2200,1.1200,-0.2100,998.8375,-6.5694,5.7573,4.4571,1590575577,N
70,2123553,-6.5228,5.6830,4.2808,-1.6800,-0.6300,-0.7000,998.8381,-6.5833,5.7495,4.4469,1590575577,N
70,2120741,-6.5779,5.6686,4.4339,-1.4700,-0.6300,-0.6300,998.8386,-6.5915,5.7300,4.4598,1590575577,N
70,2118457,-6.6640,5.5322,4.5272,0.1400,2.4500,1.2600,998.8391,-6.6161,5.6990,4.4630,1590575577,N
71,2118367,-6.7502,5.6590,4.4794,1.3300,6.0200,4.5500,998.8391,-6.6367,5.7073,4.4217,1590575577,N
70,2118861,-6.4104,5.9174,4.2975,5.0400,5.2500,6.1600,998.8391,-6.5903,5.8122,4.3540,1590575577,N
71,2119260,-6.3649,6.0443,4.0845,4.4100,6.8600,6.1600,998.8387,-6.5581,5.9212,4.2545,1590575577,N
71,2120367,-6.4534,6.1161,3.8572,1.5400,9.1700,5.4600,998.8383,-6.5674,5.9995,4.1286,1590575577,N
71,2121501,-6.6425,6.1376,3.9242,-0.9100,6.2300,5.1800,998.8382,-6.5789,6.0365,4.0558,1590575577,N
71,2122016,-6.5109,6.1639,3.8931,1.6100,2.7300,5.5300,998.8383,-6.5498,6.1017,4.0048,1590575577,N
71,2119620,-6.3171,6.2261,3.7519,4.9000,5.8100,5.0400,998.8386,-6.5199,6.1919,3.9143,1590575578,N
71,2117549,-6.4774,6.4630,3.7161,4.4800,7.4200,6.0900,998.8391,-6.4975,6.2803,3.8093,1590575578,N
71,2117122,-6.4726,6.4654,3.5653,9.0300,2.8700,6.4400,998.8397,-6.4517,6.3919,3.6999,1590575578,N
71,2117231,-6.2094,6.7645,3.3452,10.7800,1.1200,7.0000,998.8400,-6.3517,6.5629,3.5713,1590575578,N
71,2117260,-6.3745,6.5515,2.9480,-3.8500,-6.5100,9.2400,998.8403,-6.3057,6.6398,3.5102,1590575578,N
71,2117937,-6.2022,6.6903,3.0150,-3.0100,-8.7500,7.9100,998.8402,-6.2279,6.7281,3.4810,1590575578,N
71,2119975,-5.9821,6.5827,3.3595,0.5600,-4.2000,3.7100,998.8406,-6.1710,6.7733,3.4944,1590575578,N
71,2122873,-5.7117,6.7741,3.6036,0.5600,0.2800,2.8700,998.8418,-6.0895,6.8283,3.5302,1590575578,N
71,2122830,-5.7212,7.3268,3.5270,-0.2800,3.7100,5.6700,998.8430,-5.9842,6.9337,3.5048,1590575578,N
71,2122385,-5.7260,7.2311,3.4026,-12.7400,0.7000,8.7500,998.8436,-5.9108,6.9744,3.5483,1590575578,N
72,2122730,-5.6255,6.7884,3.4409,-12.0400,-0.4900,7.0700,998.8439,-5.8764,6.9674,3.6185,1590575579,N
72,2123152,-5.4078,6.8985,3.4959,0.2100,-5.2500,3.2900,998.8438,-5.7777,7.0364,3.6437,1590575579,N
71,2124604,-5.5274,7.0875,3.6921,-4.6900,2.4500,-3.9200,998.8438,-5.7857,7.0118,3.6784,1590575579,N
72,2126490,-5.6495,7.1186,3.9290,-1.8200,0.2800,-1.8200,998.8428,-5.7644,7.0014,3.7313,1590575579,N
71,2127958,-5.6112,6.8267,3.7041,-0.0700,-2.0300,-2.3100,998.8417,-5.7652,6.9885,3.7541,1590575579,N
72,2129129,-5.7404,6.8554,3.6921,2.7300,2.8700,-0.2800,998.8405,-5.7851,6.9885,3.7234,1590575579,N
71,2127021,-5.7476,7.0277,3.3404,9.3800,3.0100,-2.8000,998.8397,-5.8036,7.0427,3.5902,1590575579,N
71,2124141,-5.7500,6.8076,3.3165,14.5600,-0.7700,-3.0800,998.8397,-5.8065,7.0963,3.4782,1590575579,N
71,2122928,-5.7858,7.2144,3.3260,8.8900,1.6100,-3.6400,998.8397,-5.8061,7.1392,3.3900,1590575579,N
71,2122077,-5.7811,7.1928,3.3500,9.2400,-0.4900,-2.0300,998.8398,-5.7835,7.1851,3.3311,1590575579,N
71,2121358,-5.7811,7.1282,2.9192,23.6600,0.5600,-3.0800,998.8405,-5.7498,7.3060,3.1196,1590575580,N
71,2120407,-5.8026,7.2694,2.8953,21.2100,3.0800,-2.9400,998.8407,-5.7240,7.3998,2.9410,1590575580,N
71,2119456,-5.8911,7.1856,2.5316,11.5500,1.6100,-2.4500,998.8411,-5.7530,7.4341,2.7943,1590575580,N
71,2118469,-5.9222,7.2120,2.4383,6.3700,1.3300,-2.8000,998.8418,-5.8008,7.4354,2.6899,1590575580,N
71,2115465,-5.9844,7.2000,2.3689,0.7700,-0.4900,-1.8900,998.8422,-5.8591,7.4103,2.6322,1590575580,N
71,2111904,-6.1256,7.2503,2.2325,-1.1200,-0.0700,-1.4000,998.8427,-5.9293,7.3787,2.5629,1590575580,N
71,2110056,-6.0299,7.1713,2.3498,0.9800,-0.8400,-0.9100,998.8434,-5.9632,7.3640,2.5262,1590575580,N
72,2108992,-6.0921,7.3053,2.3498,4.5500,0.4200,-1.4000,998.8436,-5.9790,7.3723,2.4640,1590575580,N
71,2107886,-6.0036,7.3388,2.1559,-1.3300,0.5600,-0.1400,998.8444,-6.0031,7.3702,2.4111,1590575580,N
71,2107283,-5.9940,7.2814,2.1392,-2.2400,-2.0300,-1.1900,998.8455,-6.0252,7.3608,2.3846,1590575580,N
71,2107144,-6.0562,7.1856,2.2516,-2.3800,-2.6600,-2.3800,998.8464,-6.0619,7.3286,2.3909,1590575581,N
72,2106975,-6.0586,7.2503,2.4574,-6.8600,-5.5300,-2.5900,998.8473,-6.0863,7.2817,2.4704,1590575581,N
72,2105187,-6.0251,7.0134,2.6177,-3.5000,-3.0100,-2.0300,998.8477,-6.1128,7.2339,2.5445,1590575581,N
72,2102311,-6.2907,7.0277,2.6034,-3.5000,1.4000,-1.1900,998.8488,-6.1822,7.1651,2.5716,1590575581,N
72,2100307,-6.3673,6.9894,2.7565,1.3300,2.3100,2.0300,998.8495,-6.2087,7.1361,2.5882,1590575581,N
72,2099044,-5.9844,7.0612,2.4407,7.5600,4.0600,2.9400,998.8493,-6.1636,7.2029,2.5098,1590575581,N
72,2097477,-5.9246,7.1402,2.2349,3.4300,1.9600,0.2100,998.8489,-6.1432,7.2445,2.4392,1590575581,N
72,2096627,-6.0467,7.2311,2.2373,-2.1700,-0.7700,-1.1200,998.8483,-6.1523,7.2431,2.4201,1590575581,N
72,2096208,-6.2118,7.3077,2.2540,-5.9500,-3.2200,-0.4200,998.8480,-6.1708,7.2233,2.4322,1590575581,N
72,2096472,-6.1807,7.0110,2.4455,-1.4000,-1.4000,-0.7000,998.8481,-6.1948,7.1945,2.4565,1590575581,N
72,2096114,-6.1256,7.1378,2.5795,-0.0700,1.0500,1.0500,998.8486,-6.1869,7.1934,2.4793,1590575582,N
72,2093655,-6.1184,7.0947,2.4574,0.9800,1.8200,1.2600,998.8492,-6.1860,7.1984,2.4671,1590575582,N
72,2091871,-6.0467,7.2072,2.3474,0.4200,1.6800,1.6800,998.8488,-6.1685,7.2232,2.4382,1590575582,N
72,2091759,-6.0467,7.2096,2.3928,0.0700,1.5400,1.1200,998.8489,-6.1573,7.2368,2.4265,1590575582,N
72,2092994,-5.9940,7.1498,2.6536,-20.0900,-2.5200,1.3300,998.8488,-6.2002,7.1395,2.5992,1590575582,N
72,2095889,-5.9414,7.0086,2.6321,-10.8500,-2.3800,0.0700,998.8485,-6.2079,7.0992,2.6896,1590575582,N
72,2099056,-5.9533,7.1210,2.7422,-0.9100,-0.4200,-1.0500,998.8484,-6.1802,7.1137,2.7150,1590575582,N
72,2102077,-6.1472,7.4895,2.8355,-19.5300,3.5000,-1.1900,998.8483,-6.2366,7.0255,2.8139,1590575582,N
72,2103283,-6.1089,6.8865,2.9049,-1.8200,-0.4900,-1.8900,998.8484,-6.2458,7.0012,2.8537,1590575582,N
72,2100830,-5.9844,6.9440,2.9719,-2.5900,-1.8200,-4.1300,998.8487,-6.2395,6.9830,2.9115,1590575582,N
72,2098554,-6.1184,6.9320,3.0030,-1.6100,-4.2000,-5.9500,998.8495,-6.2474,6.9534,2.9648,1590575583,N
72,2098705,-6.1161,6.9224,3.1848,-2.3100,-8.6800,-7.4900,998.8499,-6.2363,6.9193,3.0664,1590575583,N
72,2099660,-5.9294,6.8243,3.1920,-1.4700,-10.3600,-8.8900,998.8505,-6.2113,6.8970,3.1657,1590575583,N
72,2101460,-6.1998,6.5779,3.3404,2.3100,-10.5700,-12.8100,998.8511,-6.2543,6.8163,3.2545,1590575583,N
72,2103120,-6.5061,6.4798,3.7280,10.3600,-11.6900,-12.7400,998.8517,-6.2909,6.7371,3.3477,1590575583,N
72,2103751,-6.6879,6.2620,3.6108,11.4100,-8.6100,-8.7500,998.8517,-6.3518,6.6607,3.3853,1590575583,N
72,2103932,-6.4582,6.0251,3.8644,6.1600,-4.2700,-3.5000,998.8516,-6.3902,6.5709,3.4871,1590575583,N
72,2102284,-6.6090,6.0682,3.8859,24.0800,-0.1400,-0.8400,998.8511,-6.3912,6.5909,3.4471,1590575583,N
72,2101613,-6.5468,6.5228,3.2040,11.5500,9.5900,4.0600,998.8501,-6.4150,6.6471,3.2915,1590575583,N
72,2101849,-6.5109,6.5444,3.0389,5.4600,9.1700,6.3700,998.8490,-6.4350,6.6859,3.1718,1590575583,N
73,2102186,-6.2668,6.7478,2.4263,5.6000,6.1600,4.4800,998.8478,-6.4261,6.7838,2.9758,1590575584,N
72,2103382,-6.2644,6.6808,2.6919,13.7200,-0.9100,4.2000,998.8470,-6.3499,6.9027,2.8640,1590575584,N
72,2106648,-6.3793,6.8602,2.5460,3.7800,4.2000,4.4100,998.8460,-6.3475,6.9454,2.7642,1590575584,N
72,2110003,-6.3506,6.9583,1.9717,14.0000,3.0100,1.9600,998.8457,-6.3187,7.0629,2.5219,1590575584,N
73,2113742,-6.1472,7.3101,1.8975,6.7900,-7.1400,4.0600,998.8454,-6.1982,7.2134,2.3916,1590575584,N
72,2121743,-6.0969,7.5254,2.2181,-12.3900,-3.5700,-1.3300,998.8448,-6.2104,7.1879,2.4363,1590575584,N
73,2128004,-6.1496,7.0660,2.6106,-30.5900,2.4500,0.5600,998.8445,-6.3467,6.9981,2.6300,1590575584,N
72,2128306,-6.3482,6.5515,2.8594,-28.4900,4.4800,0.4200,998.8446,-6.5015,6.7798,2.8168,1590575584,N
73,2123744,-6.2501,6.7813,3.0389,-2.7300,-1.4700,-0.7700,998.8446,-6.4674,6.7821,2.8889,1590575584,N
73,2119435,-6.2142,6.8100,3.0102,-2.6600,0.4200,-1.7500,998.8439,-6.4513,6.7788,2.9322,1590575584,N
73,2116829,-6.1950,6.6473,3.1083,-3.9900,-1.4000,-2.5900,998.8437,-6.4464,6.7502,3.0083,1590575585,N
73,2116146,-6.3529,6.5779,3.1226,-2.3100,-1.4700,-2.7300,998.8433,-6.4625,6.7116,3.0597,1590575585,N
73,2116101,-6.4487,6.4845,3.3571,-3.1500,-0.3500,-1.4000,998.8428,-6.4847,6.6521,3.1414,1590575585,N
73,2115656,-6.4391,6.4391,3.4911,3.5700,1.6100,1.4000,998.8427,-6.4738,6.6402,3.1886,1590575585,N
73,2114408,-6.4176,6.6736,3.1370,54.6700,3.5000,-2.1700,998.8433,-6.3282,6.9175,2.8761,1590575585,N
73,2115629,-6.3553,7.1569,2.1440,60.9700,4.6900,-0.7000,998.8427,-6.0949,7.3094,2.3655,1590575585,N
72,2120256,-6.3673,7.0540,1.2849,47.5300,6.0200,1.8900,998.8420,-5.8735,7.6342,1.8416,1590575585,N
73,2127025,-6.2979,7.7480,0.7705,38.0800,4.6900,6.5100,998.8423,-5.5153,7.9959,1.3479,1590575585,N
72,2135131,-5.7021,8.1284,0.8949,-57.0500,1.2600,17.9200,998.8428,-5.9058,7.6643,1.5972,1590575585,N
72,2137744,-6.0084,7.6164,2.3976,-176.8900,4.3400,35.0000,998.8425,-6.5271,6.8167,2.6645,1590575585,N
72,2137176,-5.3049,6.9942,2.7900,23.1700,6.8600,5.3900,998.8423,-6.2772,7.0754,2.5894,1590575586,N
72,2135327,-5.7930,7.1067,2.5795,3.9900,7.7700,-14.7000,998.8420,-6.3428,7.0319,2.5479,1590575586,N
72,2130835,-5.9509,7.8389,2.9504,0.0700,-1.2600,1.2600,998.8417,-6.1869,7.1456,2.6139,1590575586,N
72,2127462,-5.7284,7.1785,2.7254,-1.2600,-0.9100,2.4500,998.8409,-6.1018,7.2010,2.6615,1590575586,N
72,2126876,-5.6399,7.4465,3.0891,-4.6900,2.8000,4.0600,998.8409,-6.0049,7.2453,2.7598,1590575586,N
72,2127177,-5.5896,7.0445,2.9719,-3.4300,-0.9800,3.0100,998.8413,-5.9450,7.2614,2.8460,1590575586,N
72,2127451,-5.6686,7.2598,2.5555,1.7500,2.3800,-6.2300,998.8408,-5.9695,7.2653,2.7840,1590575586,N
72,2127640,-5.8959,7.2024,2.8355,7.0000,5.6000,-5.6700,998.8409,-6.0045,7.2543,2.7369,1590575586,N
72,2127549,-5.9318,7.3723,3.0078,11.0600,3.5700,-2.2400,998.8417,-5.9647,7.2986,2.7064,1590575586,N
72,2127735,-5.9151,7.1976,2.6249,14.4900,3.7100,1.1900,998.8417,-5.9210,7.3733,2.5974,1590575586,N
72,2125712,-5.8528,7.4871,2.1344,5.3200,1.7500,2.5900,998.8412,-5.8847,7.4465,2.4678,1590575587,N
72,2123404,-5.6806,7.4465,1.8808,0.6300,1.0500,-1.4700,998.8405,-5.8904,7.4793,2.3525,1590575587,N
73,2122527,-5.7165,7.7504,1.6822,-12.7400,0.7000,1.3300,998.8405,-5.9284,7.4688,2.2894,1590575587,N
73,2122804,-5.7835,7.3866,2.3880,-14.4200,-1.4700,-1.0500,998.8397,-5.9834,7.3883,2.4047,1590575587,N
73,2123327,-5.6925,7.3723,2.0028,3.3600,-3.2200,-4.5500,998.8395,-5.9584,7.4314,2.3326,1590575587,N
73,2124836,-5.9055,8.3031,2.3139,-9.8700,-2.8000,-6.5800,998.8398,-5.9567,7.4198,2.3739,1590575587,N
73,2127156,-6.1304,7.0564,2.8355,-0.1400,-2.8000,-3.8500,998.8401,-6.0116,7.3394,2.4828,1590575587,N
73,2128379,-6.0012,7.1521,2.9695,-10.7800,-0.9800,1.1200,998.8406,-6.0456,7.2544,2.6449,1590575587,N
73,2127756,-5.9916,6.9631,2.9336,2.4500,3.1500,2.2400,998.8400,-6.0482,7.2378,2.6838,1590575587,N
73,2124948,-5.8433,7.0828,2.7948,-12.3200,2.8700,5.1100,998.8402,-6.0613,7.1934,2.7724,1590575587,N
73,2122473,-5.8959,7.2526,2.8331,3.2200,4.6900,3.2900,998.8401,-6.0233,7.2349,2.7472,1590575588,N
73,2121383,-5.8528,7.0253,2.9288,-4.7600,7.9800,4.9000,998.8397,-6.0417,7.2050,2.7852,1590575588,N
73,2120219,-6.0179,7.2718,2.9216,-6.8600,4.7600,3.7100,998.8400,-6.0533,7.1802,2.8237,1590575588,N
73,2119808,-5.7978,7.4034,2.6752,0.3500,-0.4200,1.8200,998.8400,-5.9915,7.2425,2.7962,1590575588,N
73,2119308,-5.6112,7.2503,2.6201,-17.2200,-0.9100,-0.7700,998.8400,-6.0122,7.1931,2.8779,1590575588,N
73,2119068,-5.8074,7.0038,3.2686,-26.8100,-2.5900,-3.5000,998.8398,-6.0823,7.0290,3.1256,1590575588,N
73,2118053,-5.6710,7.0158,3.1585,-14.4200,-4.2000,-3.4300,998.8391,-6.0711,6.9825,3.2492,1590575588,N
73,2117358,-5.9103,6.8363,3.6706,-15.1900,13.4400,3.0100,998.8391,-6.1341,6.8766,3.3549,1590575588,N
73,2118272,-5.9557,6.5085,3.7950,-4.9000,9.7300,-0.2800,998.8403,-6.1869,6.7882,3.4370,1590575588,N
73,2120554,-6.2094,6.5133,3.6921,11.9000,1.2600,-7.1400,998.8414,-6.2243,6.7600,3.4252,1590575588,N
73,2121121,-6.1831,6.5252,3.2590,-0.3500,2.5200,1.3300,998.8413,-6.2533,6.7469,3.3979,1590575589,N
73,2120709,-6.1089,6.7454,3.4576,10.5700,3.5700,1.6800,998.8405,-6.2134,6.8118,3.3412,1590575589,N
73,2119994,-5.9127,7.2742,2.9240,28.2800,2.3800,-0.0700,998.8394,-6.0846,7.0414,3.0929,1590575589,N
73,2118766,-6.0969,7.2503,2.4120,14.4200,3.2200,-3.0800,998.8387,-6.0801,7.1416,2.8636,1590575589,N
73,2115899,-6.1878,6.7932,2.5795,5.3200,3.4300,-0.6300,998.8378,-6.1364,7.1277,2.7769,1590575589,N
73,2110362,-6.0969,7.1402,2.4287,12.1800,-0.7700,-0.7000,998.8372,-6.0934,7.2132,2.6477,1590575589,N
73,2105644,-6.1424,7.1258,2.0985,2.6600,2.3100,0.5600,998.8372,-6.1200,7.2366,2.5192,1590575589,N
73,2102921,-6.1974,7.1019,2.1703,-4.6200,0.4900,-0.2800,998.8369,-6.1768,7.2022,2.4792,1590575589,N
73,2100719,-6.1472,7.1402,2.1535,-0.5600,0.1400,-0.2100,998.8375,-6.1935,7.2070,2.4227,1590575589,N
73,2098852,-6.0993,7.2335,2.1224,0.0700,-0.4200,-0.4200,998.8383,-6.1891,7.2287,2.3688,1590575589,N
73,2097470,-6.1448,7.0421,2.2516,0.9800,0.0700,-0.3500,998.8396,-6.2028,7.2235,2.3489,1590575590,N
73,2096465,-6.1998,7.1952,2.1129,5.1800,0.5600,-1.2600,998.8406,-6.1978,7.2516,2.2741,1590575590,N
73,2094804,-6.1448,7.0445,2.0626,7.2800,-1.1200,-0.9100,998.8416,-6.1785,7.2889,2.2065,1590575590,N
73,2090354,-6.2883,7.0995,1.9813,2.1700,0.4900,-0.7000,998.8429,-6.2103,7.2780,2.1525,1590575590,N
73,2086444,-6.1328,7.1330,2.0171,14.3500,-1.3300,-0.9100,998.8436,-6.1349,7.3686,2.0584,1590575590,N
74,2084995,-6.2261,7.3460,1.5697,3.7800,-1.2600,-0.4900,998.8444,-6.1279,7.4049,1.9457,1590575590,N
73,2083917,-6.2668,7.1952,1.7013,1.9600,0.6300,-0.7000,998.8448,-6.1634,7.3905,1.8876,1590575590,N
73,2083047,-6.2716,7.2287,1.7444,-0.1400,-2.3100,-0.7000,998.8447,-6.1845,7.3766,1.8730,1590575590,N
73,2082995,-6.2094,7.1761,1.8138,-1.4700,0.9800,1.1900,998.8439,-6.2154,7.3512,1.8705,1590575590,N
74,2082912,-6.2548,7.3029,1.5984,1.0500,0.7700,0.6300,998.8434,-6.2234,7.3600,1.8085,1590575590,N
73,2083113,-6.1783,7.2048,1.6702,0.3500,0.6300,0.7700,998.8434,-6.2322,7.3590,1.7818,1590575591,N
74,2080665,-6.2237,7.2694,1.6582,-1.1900,0.5600,0.7700,998.8433,-6.2489,7.3491,1.7643,1590575591,N
73,2078255,-6.1854,7.3125,1.6104,-0.2800,-0.0700,0.7700,998.8428,-6.2444,7.3591,1.7383,1590575591,N
74,2078259,-6.1974,7.2957,1.7444,-2.0300,-0.0700,-0.0700,998.8435,-6.2587,7.3433,1.7538,1590575591,N
73,2078963,-6.2381,7.1952,1.7061,-3.0800,1.2600,0.2800,998.8443,-6.2994,7.3068,1.7603,1590575591,N
73,2079197,-6.2046,7.2096,1.6774,-2.5900,0.0700,0.1400,998.8445,-6.3165,7.2914,1.7627,1590575591,N
73,2079545,-6.2166,7.2479,1.7133,-2.7300,-0.7700,-0.1400,998.8447,-6.3237,7.2822,1.7748,1590575591,N
73,2079807,-6.2405,7.1665,1.8855,-3.8500,-0.1400,-0.7000,998.8447,-6.3506,7.2468,1.8231,1590575591,N
73,2080021,-6.1878,7.2024,1.8257,-0.6300,-0.9100,-0.2800,998.8442,-6.3350,7.2571,1.8364,1590575591,N
73,2078868,-6.1902,7.1880,1.8760,0.2800,0.2100,-1.0500,998.8445,-6.3301,7.2586,1.8475,1590575591,N
73,2076764,-6.2668,7.2287,1.7061,-0.2100,-0.8400,-2.8000,998.8438,-6.3437,7.2517,1.8277,1590575592,N
73,2076574,-6.2429,7.0899,1.9095,-3.4300,-3.5000,-2.8000,998.8444,-6.3619,7.2209,1.8855,1590575592,N
73,2078276,-6.1543,7.1426,2.0291,-4.7600,-4.9700,-2.7300,998.8448,-6.3548,7.2047,1.9697,1590575592,N
73,2079142,-6.2836,6.9583,2.2804,-6.2300,-2.9400,-3.5000,998.8452,-6.4014,7.1301,2.0866,1590575592,N
73,2080367,-6.3912,6.8004,2.1846,-8.8200,-3.4300,-2.3800,998.8461,-6.4690,7.0408,2.1794,1590575592,N
73,2082591,-6.2764,6.8339,2.3569,-5.6700,-4.7600,-1.5400,998.8472,-6.4693,7.0090,2.2786,1590575592,N
73,2083818,-6.3242,6.8195,2.6130,-13.3000,-1.1900,-1.5400,998.8480,-6.5204,6.9107,2.4282,1590575592,N
73,2084285,-6.5779,6.7717,2.9049,0.2800,-0.7000,0.7700,998.8491,-6.5138,6.8838,2.5209,1590575592,N
73,2082835,-6.3841,6.7932,2.8068,2.1000,2.8000,4.3400,998.8502,-6.4769,6.9051,2.5572,1590575592,N
73,2081881,-6.1352,7.0923,2.3402,6.7900,3.9200,3.9900,998.8510,-6.3971,7.0116,2.4667,1590575592,N
73,2082285,-6.0682,7.2311,1.9908,6.7900,3.5700,0.9800,998.8518,-6.3404,7.1106,2.3257,1590575593,N
73,2082192,-6.2189,7.0301,2.0937,6.5800,-0.4900,-1.1200,998.8527,-6.3138,7.1571,2.2544,1590575593,N
73,2080811,-6.2907,6.8626,2.4239,-0.0700,-3.2200,-0.4900,998.8531,-6.3198,7.1331,2.3130,1590575593,N
73,2079507,-6.3099,6.8650,2.2756,11.9000,-1.2600,-2.5200,998.8532,-6.2967,7.1713,2.2573,1590575593,N
73,2078467,-6.4774,6.8195,2.3545,-4.2000,-0.4200,0.4900,998.8531,-6.3641,7.0953,2.3077,1590575593,N
73,2080326,-6.2859,7.0181,2.1966,1.9600,-0.4200,1.8200,998.8532,-6.3416,7.1236,2.2823,1590575593,N
73,2079961,-6.2548,7.1833,2.3378,-13.0200,3.2200,3.8500,998.8538,-6.3788,7.0689,2.3477,1590575593,N
73,2079368,-6.2381,7.1163,2.3234,1.6800,1.4000,2.3100,998.8548,-6.3440,7.1060,2.3301,1590575593,N
73,2080377,-6.1256,7.0923,2.2110,1.2600,-1.0500,0.7700,998.8554,-6.3062,7.1453,2.3124,1590575593,N
73,2081842,-6.1472,7.0804,2.3450,0.2800,-1.0500,-0.5600,998.8552,-6.2885,7.1554,2.3292,1590575593,N
73,2083509,-6.2716,7.0923,2.3521,-0.7700,-0.7700,-0.7000,998.8551,-6.2955,7.1444,2.3441,1590575594,N
73,2084772,-6.2166,7.0325,2.3761,0.3500,-0.8400,0.2100,998.8550,-6.2878,7.1464,2.3584,1590575594,N
73,2086352,-6.2189,7.0516,2.3354,0.4900,1.6100,-0.0700,998.8558,-6.2968,7.1414,2.3496,1590575594,N
73,2087796,-6.1735,7.1545,2.2971,1.6800,0.2100,0.4200,998.8564,-6.2731,7.1678,2.3328,1590575594,N
73,2087394,-6.1448,7.1067,2.2851,0.0700,0.2100,0.0700,998.8576,-6.2654,7.1759,2.3285,1590575594,N
73,2085835,-6.2357,7.1067,2.3880,0.0700,0.8400,-0.4900,998.8580,-6.2743,7.1646,2.3391,1590575594,N
73,2085909,-6.1519,7.1163,2.2445,0.4200,1.1900,0.7000,998.8582,-6.2675,7.1772,2.3186,1590575594,N
73,2086858,-6.1065,7.1426,2.3665,-3.9900,-0.4900,-0.0700,998.8580,-6.2663,7.1655,2.3580,1590575594,N
73,2087656,-6.1519,7.0732,2.3163,-1.0500,-1.4700,-1.7500,998.8573,-6.2706,7.1579,2.3697,1590575594,N
73,2088282,-6.2429,7.1139,2.3880,0.1400,-1.3300,-0.8400,998.8563,-6.2681,7.1562,2.3810,1590575594,N
73,2089159,-6.2166,7.5876,2.9456,-7.4900,-12.8100,10.0100,998.8559,-6.1001,7.2377,2.5643,1590575595,N
73,2092657,-5.9557,6.9751,2.2612,11.4100,-15.1200,5.4600,998.8558,-5.9478,7.3790,2.5188,1590575595,N
73,2093343,-5.6064,7.3268,3.0317,-21.4900,-12.1100,8.8200,998.8549,-5.8602,7.3480,2.7990,1590575595,N
73,2092017,-5.5801,7.4201,2.6560,1.7500,7.2800,-7.7000,998.8536,-5.9044,7.3341,2.7420,1590575595,N
73,2091152,-6.0275,7.3292,3.1035,-6.3000,9.4500,-1.0500,998.8530,-5.9890,7.2437,2.7984,1590575595,N
73,2091329,-5.9916,7.3173,2.7015,-0.2100,1.3300,0.0700,998.8530,-5.9937,7.2497,2.7728,1590575595,N
73,2091902,-5.8409,7.2072,2.6847,-3.2200,3.9200,0.0700,998.8524,-6.0140,7.2360,2.7645,1590575595,N
73,2092150,-5.9151,7.1593,2.8451,-0.5600,0.6300,-0.4200,998.8511,-6.0136,7.2278,2.7866,1590575595,N
72,2092512,-5.8959,7.2503,2.7063,0.0700,0.8400,-0.3500,998.8496,-6.0062,7.2400,2.7711,1590575595,N
73,2093078,-5.9892,7.1641,2.8020,-1.0500,0.2800,-0.8400,998.8489,-6.0209,7.2222,2.7856,1590575595,N
73,2093173,-6.0012,7.0923,2.8283,-0.5600,-0.1400,-0.6300,998.8483,-6.0343,7.2039,2.8036,1590575596,N
73,2091015,-6.0586,6.9918,2.9336,0.2800,1.4000,-0.6300,998.8472,-6.0627,7.1704,2.8282,1590575596,N
72,2088865,-5.9797,7.1234,2.8187,2.5200,2.5200,2.1000,998.8466,-6.0467,7.1929,2.8053,1590575596,N
72,2088236,-5.9414,7.2144,2.7422,2.6600,3.4300,2.6600,998.8463,-6.0239,7.2274,2.7653,1590575596,N
72,2088419,-6.0084,7.3460,2.6297,2.5900,4.4800,2.8700,998.8461,-6.0105,7.2631,2.7005,1590575596,N
72,2088652,-5.6423,7.3699,2.6273,1.8200,2.9400,5.3200,998.8459,-5.9281,7.3416,2.6700,1590575596,N
72,2089254,-5.7093,7.2646,2.4574,3.6400,5.6700,2.5900,998.8453,-5.9115,7.3821,2.5939,1590575596,N
72,2089852,-6.1304,7.3866,2.1224,4.0600,7.0000,0.7000,998.8448,-5.9691,7.3866,2.4451,1590575596,N
72,2089386,-5.8361,7.5159,2.0578,3.7800,-0.9800,-0.4200,998.8448,-5.9329,7.4454,2.3531,1590575596,N
72,2086753,-5.5992,7.5733,1.9597,-2.3800,-6.4400,-3.7800,998.8457,-5.8938,7.4853,2.3247,1590575596,N
72,2083513,-5.7643,7.3866,2.2756,-7.0000,-7.2800,-5.6700,998.8461,-5.9213,7.4408,2.3965,1590575597,N
72,2082483,-6.0610,7.0014,2.8116,-8.3300,-5.7400,-5.9500,998.8455,-6.0173,7.3073,2.5625,1590575597,N
72,2082784,-6.2524,6.8195,3.1777,-2.0300,0.2800,-1.1200,998.8453,-6.0932,7.1946,2.6985,1590575597,N
72,2084107,-6.0491,7.1067,2.6584,2.8700,4.3400,2.8700,998.8453,-6.0896,7.2120,2.6597,1590575597,N
72,2085161,-5.7835,7.2933,2.4503,0.2800,2.5900,1.8200,998.8448,-6.0520,7.2603,2.6139,1590575597,N
72,2085852,-5.9605,7.1856,2.5795,-0.4900,1.4700,1.0500,998.8448,-6.0515,7.2623,2.6093,1590575597,N
72,2087600,-5.9198,7.2120,2.5747,1.6800,1.8200,1.4000,998.8449,-6.0340,7.2833,2.5912,1590575597,N
72,2086801,-5.9581,7.2431,2.6010,2.0300,1.3300,2.0300,998.8451,-6.0127,7.3053,2.5790,1590575597,N
72,2084596,-5.9533,7.2024,2.5579,2.2400,3.0100,2.5200,998.8448,-6.0049,7.3203,2.5542,1590575597,N
72,2083465,-5.8792,7.3508,2.3713,4.4100,2.3800,3.0800,998.8445,-5.9647,7.3766,2.4858,1590575597,N
72,2083750,-5.7858,7.3914,2.1559,2.7300,2.1700,3.4300,998.8439,-5.9272,7.4346,2.4012,1590575598,N
72,2084145,-5.9079,7.4297,2.3234,0.0700,2.8700,-0.7000,998.8448,-5.9480,7.4263,2.3751,1590575598,N
72,2084860,-5.9007,7.4273,2.1799,1.6100,-3.2900,0.7000,998.8456,-5.9167,7.4613,2.3434,1590575598,N
72,2085684,-5.6327,7.4728,2.2373,-1.8900,-3.2900,-0.5600,998.8469,-5.8771,7.4886,2.3560,1590575598,N
72,2086451,-5.9773,7.3675,2.3976,-1.4000,-0.2800,-1.5400,998.8480,-5.9159,7.4518,2.3756,1590575598,N
72,2086489,-6.0108,7.2383,2.4550,0.2800,-0.0700,0.2100,998.8490,-5.9426,7.4245,2.3944,1590575598,N
72,2084435,-5.7332,7.4225,2.3186,1.6100,1.4000,1.2600,998.8496,-5.9093,7.4586,2.3706,1590575598,N
72,2083157,-5.8505,7.4895,2.2493,0.4200,0.9100,0.0700,998.8499,-5.9051,7.4710,2.3419,1590575598,N
72,2083415,-5.8648,7.3699,2.2684,-1.1900,-0.2800,-0.1400,998.8492,-5.9168,7.4621,2.3409,1590575598,N
72,2084236,-5.8337,7.3675,2.3498,-0.2800,0.0700,-0.0700,998.8487,-5.9169,7.4592,2.3499,1590575598,N
72,2085116,-5.8576,7.3795,2.2804,-0.5600,0.5600,-0.2100,998.8483,-5.9261,7.4542,2.3423,1590575599,N
72,2086220,-5.8193,7.3412,2.2277,-0.0700,0.4900,-0.2800,998.8472,-5.9313,7.4552,2.3261,1590575599,N
72,2087366,-5.8170,7.3699,2.3186,-0.4200,0.2800,-0.5600,998.8462,-5.9323,7.4523,2.3326,1590575599,N
72,2087983,-5.8265,7.3244,2.3067,-0.0700,0.2100,-0.2800,998.8448,-5.9348,7.4495,2.3351,1590575599,N
72,2086250,-5.9103,7.3890,2.2469,0.2800,0.6300,-0.4200,998.8441,-5.9449,7.4471,2.3171,1590575599,N
72,2084536,-5.8744,7.3938,2.3163,0.2800,0.2100,-0.4900,998.8428,-5.9440,7.4474,2.3187,1590575599,N
72,2084563,-5.8624,7.4082,2.3043,-0.5600,-0.4200,-0.6300,998.8425,-5.9424,7.4467,2.3250,1590575599,N
72,2085080,-5.9653,7.3747,2.2229,-0.0700,-0.0700,-0.4200,998.8426,-5.9577,7.4396,2.3084,1590575599,N
72,2085585,-5.9198,7.3053,2.2828,-0.0700,-0.6300,-0.2100,998.8422,-5.9644,7.4329,2.3126,1590575599,N
72,2086338,-5.8624,7.4106,2.2995,-0.6300,-0.1400,0.4200,998.8416,-5.9534,7.4401,2.3179,1590575599,N
72,2087485,-5.8744,7.3962,2.2828,0.7000,1.2600,0.6300,998.8410,-5.9476,7.4485,2.3055,1590575600,N
72,2088369,-5.8337,7.4249,2.2397,1.5400,0.2100,0.6300,998.8408,-5.9261,7.4714,2.2870,1590575600,N
72,2087366,-5.7643,7.4776,2.1942,0.3500,-0.1400,-0.4900,998.8403,-5.9082,7.4899,2.2724,1590575600,N
72,2084944,-5.7667,7.4393,2.1535,1.2600,-1.9600,-1.8900,998.8399,-5.8934,7.5063,2.2570,1590575600,N
72,2083858,-5.7308,7.4321,2.1679,1.3300,-1.0500,-3.9200,998.8400,-5.8958,7.5078,2.2455,1590575600,N
72,2084205,-6.0012,7.3005,2.1966,-0.4900,-1.5400,-3.4300,998.8400,-5.9472,7.4653,2.2517,1590575600,N
72,2084889,-6.0299,7.3173,2.3163,-0.4900,-0.9800,-4.4100,998.8406,-5.9971,7.4179,2.2760,1590575600,N
72,2086022,-6.0108,7.2144,2.1799,-0.9800,-4.3400,-4.2000,998.8400,-6.0296,7.3870,2.2903,1590575600,N
72,2087117,-6.0203,7.2479,2.3234,-1.3300,-2.8000,-5.0400,998.8398,-6.0660,7.3467,2.3237,1590575600,N
72,2088116,-6.2429,7.3795,2.4191,-1.8900,-6.8600,-9.8000,998.8392,-6.1193,7.2843,2.3798,1590575600,N
72,2088434,-5.8648,7.0947,2.1727,-2.8000,-12.7400,-14.3500,998.8392,-6.1520,7.2395,2.4318,1590575601,N
72,2086465,-6.2644,6.8794,2.6465,-11.4800,-10.7100,-17.1500,998.8394,-6.3007,7.0502,2.6013,1590575601,N
72,2084500,-6.2381,6.4965,3.0987,-15.7500,-7.9100,-15.9600,998.8392,-6.4520,6.8150,2.8455,1590575601,N
72,2084683,-6.7908,6.0371,3.4050,-4.4100,-3.7800,-18.3400,998.8397,-6.6546,6.5431,3.0123,1590575601,N
72,2085248,-7.0540,5.6471,3.4768,-3.7100,-3.1500,-11.6900,998.8399,-6.8297,6.2907,3.1547,1590575601,N
72,2085872,-7.0205,5.7858,3.1561,-4.1300,2.5900,-3.5700,998.8403,-6.9398,6.1593,3.1739,1590575601,N
72,2086690,-6.9775,5.8026,3.0939,3.1500,6.3700,-1.4000,998.8408,-7.0130,6.1021,3.1230,1590575601,N
72,2087374,-6.9392,5.9462,2.5747,-7.0000,14.4200,-2.3800,998.8416,-7.1502,6.0134,2.9806,1590575601,N
72,2087832,-7.2670,5.8409,3.5438,-24.8500,12.3900,-8.7500,998.8425,-7.3157,5.7410,3.1131,1590575601,N
72,2088004,-7.4632,5.3384,3.6802,-9.6600,-5.4600,-12.4600,998.8423,-7.3925,5.5435,3.2851,1590575601,N
72,2086889,-7.5063,4.9603,3.7639,-4.3400,0.0700,-6.5100,998.8417,-7.4696,5.3691,3.3982,1590575602,N
72,2086879,-7.2215,4.7474,3.6156,9.1700,-10.7100,-6.1600,998.8409,-7.4581,5.3205,3.4984,1590575602,N
72,2087812,-7.7240,5.7619,3.4074,8.6100,-12.3200,-6.8600,998.8403,-7.4126,5.3920,3.4857,1590575602,N
72,2087722,-7.3460,4.9460,3.5677,4.0600,-8.4700,-2.1000,998.8403,-7.4051,5.3570,3.5550,1590575602,N
72,2088075,-7.5087,5.1087,3.5533,10.3600,-12.8100,-5.2500,998.8401,-7.3857,5.3610,3.5892,1590575602,N
72,2089092,-7.0134,5.3264,3.4863,-1.4000,-11.9000,-7.7700,998.8400,-7.3458,5.3652,3.6639,1590575602,N
72,2090540,-7.2838,4.8215,4.0319,0.6300,-8.4000,-10.0100,998.8398,-7.3784,5.2294,3.7926,1590575602,N
72,2091448,-7.7001,4.6732,4.7091,-7.4200,7.0000,0.3500,998.8399,-7.4418,5.0339,3.9306,1590575602,N
72,2089964,-7.6690,4.9125,3.9194,10.2900,5.5300,5.8800,998.8397,-7.4591,5.0701,3.8506,1590575602,N
72,2088806,-7.5900,5.0489,3.6945,10.9200,8.4000,8.9600,998.8389,-7.4653,5.1503,3.7303,1590575602,N
72,2088558,-7.5182,5.2068,3.5821,0.0700,6.5100,10.7800,998.8378,-7.4496,5.2155,3.6705,1590575603,N
72,2089911,-8.2576,5.3791,3.1753,-17.9900,3.2900,21.7000,998.8367,-7.4483,5.2558,3.6151,1590575603,N
72,2091009,-8.4826,5.8768,2.8714,-19.2500,4.7600,45.5700,998.8364,-7.3239,5.4941,3.5136,1590575603,N
72,2093360,-6.6425,5.2714,3.2542,-53.7600,-13.1600,60.8300,998.8367,-6.9496,5.7216,3.8907,1590575603,N
72,2097669,-4.9866,5.3312,3.5844,-84.2100,-33.1100,47.0400,998.8367,-6.4312,5.7628,4.6475,1590575603,N
72,2101188,-3.9242,4.8048,4.6732,-126.4200,-38.5000,35.0000,998.8362,-5.8491,5.3618,5.7628,1590575603,N
72,2105167,-2.3139,3.3236,7.8580,-67.7600,-32.9000,22.4700,998.8369,-4.9710,4.8907,6.8949,1590575603,N
72,2115704,-1.8808,3.9314,10.3681,-118.0900,15.8900,34.4400,998.8373,-4.4665,4.1798,7.6648,1590575603,N
72,2124978,-2.5866,0.8734,8.9013,-55.5100,66.4300,-7.2100,998.8374,-4.6512,3.1366,8.0435,1590575603,N
72,2133175,-4.8670,0.7131,9.0520,-41.3000,64.8200,-33.1800,998.8368,-4.9726,2.2440,8.1491,1590575603,N
72,2142100,-6.0706,0.8255,8.2983,-21.0000,37.1700,-33.7400,998.8353,-5.1737,1.6895,8.1578,1590575604,N
72,2150227,-7.6259,0.1555,7.3675,-36.4000,41.9300,3.3600,998.8338,-9.4271,2.1434,1.6449,1590575604,N
72,2155010,-6.7262,-2.1535,6.0227,-4.4800,-6.5800,-19.3900,998.8324,-9.5477,1.2247,1.8739,1590575604,N
72,2155843,-7.0445,-0.0526,6.5683,-46.9000,12.5300,23.3800,998.8317,-9.5461,1.0606,1.9793,1590575604,N
72,2155760,-7.2287,-1.7444,7.4082,-24.0800,-16.2400,24.6400,998.8319,-9.3740,0.6211,2.8128,1590575604,N
72,2163093,-7.1354,-1.0217,6.8100,-9.5900,3.4300,3.1500,998.8318,-9.2480,0.2725,3.2512,1590575604,N
72,2172864,-6.8889,-0.9787,7.0373,3.7800,-0.2800,3.1500,998.8323,-9.0735,0.0235,3.7204,1590575604,N
72,2180328,-6.9966,-1.1940,6.9368,5.9500,-1.1900,0.9100,998.8325,-8.7779,-0.2346,4.3661,1590575604,N
72,2187896,-7.0110,-0.6197,6.8937,6.3700,-0.1400,-5.2500,998.8328,-8.5058,-0.3524,4.8679,1590575604,N
72,2195364,-6.7837,-0.7298,7.0277,0.1400,-4.9700,-1.4000,998.8336,-8.1756,-0.4629,5.3960,1590575604,N
72,2201854,-6.9488,-0.9332,6.9081,2.8000,-4.8300,-1.8200,998.8347,-7.8189,-0.5758,5.8910,1590575605,N
73,2210275,-7.0205,-1.1222,7.0253,14.8400,-0.9800,-4.4100,998.8362,-7.3401,-0.6562,6.4701,1590575605,N
73,2216102,-6.5157,-0.0598,7.4201,16.8700,3.0800,-1.3300,998.8375,-6.9527,-0.4689,6.9000,1590575605,N
73,2220679,-6.7621,0.0263,7.0923,-7.3500,4.5500,-2.3100,998.8382,-7.0981,-0.4156,6.7539,1590575605,N
73,2225850,-6.9942,-0.5838,6.8722,-9.6600,-1.2600,-3.6400,998.8392,-7.1620,-0.5121,6.6793,1590575605,N
73,2232217,-6.9775,-0.9165,7.0014,-16.7300,-3.6400,2.1700,998.8404,-7.3377,-0.6534,6.4732,1590575605,N
73,2239273,-6.9224,-1.0265,7.0181,-0.4900,-0.7000,1.8900,998.8419,-7.2434,-0.7202,6.5715,1590575605,N
73,2246454,-6.8243,-0.5838,7.0660,22.3300,-0.9800,1.4000,998.8435,-6.8359,-0.5826,7.0073,1590575605,N
73,2252199,-6.7310,-0.2847,7.1426,4.9700,-2.8700,0.7700,998.8439,-6.7012,-0.4941,7.1429,1590575605,N
73,2257175,-6.6832,-0.2154,7.0445,1.4000,-2.8000,1.6100,998.8445,-6.6875,-0.4241,7.1602,1590575605,N
73,2260134,-6.9440,-0.7705,6.8363,1.0500,3.4300,0.4900,998.8436,-6.7691,-0.4866,7.0790,1590575606,N
73,2263415,-6.8172,-0.4451,7.0660,27.0900,3.6400,-0.7000,998.8434,-5.8818,-0.3258,7.8402,1590575606,N
73,2266666,-6.7119,-0.2034,7.4393,-13.0200,3.6400,0.0700,998.8430,-6.4993,-0.3790,7.3339,1590575606,N
73,2270257,-6.8746,-0.5886,6.9990,-3.9200,-0.4200,0.7000,998.8423,-6.7265,-0.4387,7.1226,1590575606,N
73,2274833,-6.8315,-0.5240,7.1354,-2.9400,-0.9800,0.6300,998.8412,-6.8218,-0.4668,7.0296,1590575606,N
73,2279684,-6.7908,-0.5982,7.1067,-2.8700,0.0700,-0.2800,998.8406,-6.8680,-0.5081,6.9816,1590575606,N
73,2284288,-6.8770,-0.5288,7.0828,-1.2600,0.8400,-0.2800,998.8394,-6.8849,-0.5189,6.9642,1590575606,N
73,2287272,-6.9296,-0.6580,7.0421,-1.9600,0.1400,-0.3500,998.8383,-6.9113,-0.5567,6.9350,1590575606,N
73,2286921,-6.9464,-0.6269,7.0038,-1.2600,-0.3500,-0.8400,998.8373,-6.9111,-0.5799,6.9333,1590575606,N
73,2287489,-6.7765,-0.6054,7.1569,0.6300,0.6300,0.0700,998.8365,-6.8680,-0.5809,6.9759,1590575606,N
73,2289644,-6.8578,-0.5886,7.0588,-0.8400,-0.0700,0.0700,998.8363,-6.8756,-0.5856,6.9681,1590575607,N
73,2292208,-6.8411,-0.6508,7.0660,-2.6600,-0.7700,-1.1900,998.8361,-6.8817,-0.6168,6.9593,1590575607,N
73,2295141,-6.8148,-0.7442,7.0804,-4.1300,-0.2800,0.0700,998.8357,-6.9278,-0.6612,6.9093,1590575607,N
73,2298630,-6.9153,-0.8016,7.0325,-0.9100,0.4900,-0.2800,998.8361,-6.9223,-0.6937,6.9116,1590575607,N
73,2302305,-6.7860,-0.6867,7.0708,0.6300,0.0700,-0.0700,998.8363,-6.8824,-0.6895,6.9518,1590575607,N
73,2304738,-6.8387,-0.7585,7.0612,-1.0500,0.2100,0.6300,998.8369,-6.8935,-0.7046,6.9393,1590575607,N
73,2303065,-6.8219,-0.7274,7.0373,-0.7000,-0.4200,0.9100,998.8372,-6.8989,-0.7079,6.9335,1590575607,N
72,2301797,-6.8315,-0.6963,7.0588,0.3500,0.6300,0.6300,998.8378,-6.8892,-0.7003,6.9440,1590575607,N
73,2302806,-6.9894,-0.7155,6.9942,0.3500,0.7700,0.9800,998.8376,-6.9099,-0.6953,6.9239,1590575607,N
73,2303943,-6.9176,-0.7609,6.9488,1.8200,0.9100,-0.5600,998.8386,-6.8751,-0.7018,6.9578,1590575607,N
73,2305150,-6.8100,-0.6820,7.0469,-0.4900,-0.2800,-0.3500,998.8397,-6.8603,-0.7017,6.9724,1590575608,N
73,2307357,-6.8626,-0.7705,7.0205,-1.8900,-0.7700,-0.1400,998.8406,-6.8768,-0.7248,6.9537,1590575608,N
72,2310057,-6.8913,-0.7825,7.0277,-0.0700,-0.4200,-0.3500,998.8418,-6.8628,-0.7373,6.9663,1590575608,N
73,2311699,-6.8052,-0.6987,7.0636,-0.7000,-0.6300,0.9100,998.8421,-6.8691,-0.7283,6.9610,1590575608,N
72,2308695,-6.7908,-0.7442,7.0181,-0.0700,0.4200,0.2100,998.8420,-6.8621,-0.7310,6.9676,1590575608,N
72,2305795,-6.8842,-0.7250,7.0301,0.4200,0.6300,1.7500,998.8417,-6.8840,-0.7185,6.9473,1590575608,N
72,2305504,-6.8459,-0.6604,6.9775,0.4200,-0.2100,0.1400,998.8416,-6.8726,-0.7042,6.9600,1590575608,N
72,2305997,-6.8602,-0.7083,7.0373,0.7000,-0.9800,-1.1900,998.8417,-6.8268,-0.7066,7.0047,1590575608,N
72,2306873,-6.8004,-0.7346,7.1067,-0.7000,-0.6300,-0.6300,998.8416,-6.8105,-0.7178,7.0194,1590575608,N
72,2308597,-6.8028,-0.6891,7.0708,0.2100,0.0700,0.3500,998.8415,-6.8077,-0.7090,7.0230,1590575608,N
72,2310724,-6.8052,-0.6556,7.0923,0.2100,-0.4200,0.4200,998.8416,-6.8021,-0.6947,7.0299,1590575609,N
72,2312214,-6.8913,-0.6724,7.0421,-1.5400,-0.4900,0.4200,998.8420,-6.8391,-0.6949,6.9938,1590575609,N
72,2308699,-6.7813,-0.6891,7.0899,-0.3500,-0.2800,-0.3500,998.8426,-6.8218,-0.6968,7.0105,1590575609,N
72,2304753,-6.8339,-0.7346,7.0612,-0.5600,0.6300,-0.0700,998.8428,-6.8294,-0.7068,7.0022,1590575609,N
72,2303434,-6.8411,-0.6963,6.9942,-0.0700,0.5600,0.1400,998.8430,-6.8386,-0.7043,6.9934,1590575609,N
72,2303300,-6.8387,-0.6676,7.0828,-0.7700,0.2100,-0.1400,998.8425,-6.8419,-0.7006,6.9906,1590575609,N
72,2303674,-6.9009,-0.7059,6.9870,0.2100,-0.2800,0.0700,998.8422,-6.8442,-0.6997,6.9884,1590575609,N
72,2304792,-6.8243,-0.6461,7.0875,0.2100,0.1400,0.0700,998.8416,-6.8320,-0.6869,7.0016,1590575609,N
72,2306458,-6.8267,-0.6508,7.0397,-0.3500,-0.6300,-0.1400,998.8424,-6.8275,-0.6818,7.0065,1590575609,N
72,2308331,-6.8004,-0.7490,7.0804,-0.4200,-0.2800,1.1200,998.8431,-6.8399,-0.6914,6.9934,1590575609,N
72,2305668,-6.7502,-0.6987,6.9535,0.2800,2.9400,-0.8400,998.8436,-6.8352,-0.6968,6.9975,1590575610,N
72,2300241,-6.9129,-0.7848,6.9511,-0.6300,1.1900,-1.0500,998.8437,-6.8481,-0.7222,6.9823,1590575610,N
72,2297729,-6.9009,-0.8542,7.0540,-0.7000,1.1900,-0.4200,998.8436,-6.8569,-0.7524,6.9704,1590575610,N
72,2297452,-6.8674,-0.6963,6.9751,0.3500,1.1200,-0.0700,998.8435,-6.8589,-0.7397,6.9698,1590575610,N
72,2297359,-6.9440,-0.7298,6.8865,-0.7000,-0.3500,-0.3500,998.8434,-6.8788,-0.7428,6.9498,1590575610,N
72,2298079,-6.8650,-0.7370,7.0158,-0.0700,0.9100,-0.3500,998.8433,-6.8726,-0.7432,6.9560,1590575610,N
72,2299556,-6.9535,-0.7848,6.8865,-0.6300,0.8400,-0.7000,998.8428,-6.8917,-0.7578,6.9355,1590575610,N
72,2301511,-6.9918,-0.8088,6.9846,-0.4900,-0.7700,-0.1400,998.8423,-6.8965,-0.7693,6.9294,1590575610,N
72,2300252,-6.9703,-0.8734,6.9320,-12.8100,3.7100,-7.6300,998.8420,-6.9863,-0.8880,6.8244,1590575610,N
72,2294658,-7.2742,-1.1318,6.9823,-28.3500,-7.7000,-4.7600,998.8417,-7.1639,-1.0846,6.6085,1590575610,N
72,2297332,-6.6281,-1.6463,6.9703,-21.9800,-11.1300,0.8400,998.8411,-7.1400,-1.2979,6.5959,1590575611,N
72,2303771,-6.5731,-1.8544,7.0516,-9.4500,-3.8500,-0.2100,998.8414,-7.0375,-1.4581,6.6722,1590575611,N
72,2308413,-6.7167,-1.8305,7.0205,-4.9700,-1.8900,0.0700,998.8419,-6.9705,-1.5549,6.7205,1590575611,N
72,2312704,-6.6784,-1.9573,6.9368,-12.9500,-6.0200,-1.3300,998.8413,-6.9233,-1.7049,6.7329,1590575611,N
72,2316127,-6.3673,-2.1440,7.1186,-11.9700,-5.8100,-3.1500,998.8417,-6.8048,-1.8716,6.8089,1590575611,N
72,2317209,-6.4391,-2.2564,7.1833,-8.9600,-5.0400,-2.3800,998.8417,-6.7058,-2.0030,6.8695,1590575611,N
72,2317825,-6.3266,-2.3880,7.1976,-3.7800,-1.8900,-1.1900,998.8415,-6.6120,-2.1039,6.9301,1590575611,N
72,2316176,-6.3984,-2.3904,7.0828,-0.9800,-0.8400,-1.6800,998.8410,-6.5495,-2.1734,6.9678,1590575611,N
72,2314351,-6.4199,-2.4287,7.1186,-3.8500,-3.7800,-0.2100,998.8406,-6.5022,-2.2415,6.9905,1590575611,N
72,2313942,-6.1639,-2.4670,7.1330,-7.3500,-6.3000,1.1900,998.8406,-6.4385,-2.3230,7.0228,1590575611,N
72,2313476,-6.1089,-2.6536,7.2431,-3.7100,-3.0100,1.8900,998.8408,-6.3722,-2.3991,7.0576,1590575612,N
72,2313169,-6.2381,-2.5484,7.2646,-2.5200,-1.8200,2.5200,998.8414,-6.3449,-2.4258,7.0731,1590575612,N
72,2313043,-6.2070,-2.5555,7.1761,-0.7700,-2.0300,2.9400,998.8411,-6.3208,-2.4413,7.0893,1590575612,N
73,2312658,-6.2142,-2.5627,7.2455,-0.2100,-1.4000,2.5900,998.8405,-6.2956,-2.4510,7.1083,1590575612,N
72,2312157,-6.1567,-2.4718,7.2263,-0.7000,0.4900,-0.5600,998.8401,-6.2702,-2.4618,7.1271,1590575612,N
73,2311824,-6.1998,-2.5196,7.2646,-4.2700,-0.8400,-1.8900,998.8391,-6.2488,-2.5016,7.1320,1590575612,N
73,2311923,-6.1974,-2.6177,7.1761,-3.6400,-1.4700,-1.4700,998.8381,-6.2314,-2.5494,7.1303,1590575612,N
73,2313089,-6.1687,-2.7159,7.1665,-0.1400,0.6300,-0.7700,998.8376,-6.2147,-2.5854,7.1319,1590575612,N
73,2313719,-6.1519,-2.7159,7.2048,-1.6100,0.4900,1.2600,998.8370,-6.2123,-2.6121,7.1242,1590575612,N
73,2313615,-6.2022,-2.6800,7.1952,-1.8200,-0.4900,1.6100,998.8371,-6.2151,-2.6247,7.1172,1590575612,N
73,2313990,-6.1878,-2.7230,7.2287,-0.5600,0.6300,0.2100,998.8368,-6.2055,-2.6418,7.1192,1590575613,N
73,2314790,-6.2094,-2.7039,7.2168,-0.3500,0.2800,-0.9100,998.8369,-6.1931,-2.6554,7.1249,1590575613,N
73,2315734,-6.1998,-2.6752,7.2024,-0.4200,-0.2800,-0.4200,998.8369,-6.1837,-2.6600,7.1314,1590575613,N
73,2316133,-6.1448,-2.7278,7.1904,-0.4200,-0.1400,0.2800,998.8366,-6.1734,-2.6725,7.1356,1590575613,N
73,2314860,-6.1735,-2.7111,7.1856,-0.0700,-0.4900,-0.0700,998.8372,-6.1642,-2.6782,7.1415,1590575613,N
73,2314233,-6.1161,-2.7254,7.1426,0.6300,-0.5600,-0.1400,998.8369,-6.1496,-2.6855,7.1513,1590575613,N
73,2314366,-6.1591,-2.6824,7.2168,-0.6300,-0.5600,0.2100,998.8365,-6.1448,-2.6844,7.1558,1590575613,N
73,2314887,-6.1639,-2.7781,7.1689,0.4200,-0.1400,-0.0700,998.8362,-6.1397,-2.6984,7.1549,1590575613,N
73,2315340,-6.2189,-2.6608,7.1330,-0.3500,-0.0700,-0.2100,998.8355,-6.1524,-2.6924,7.1463,1590575613,N
73,2316284,-6.1567,-2.6871,7.2000,-0.2100,-0.2800,-0.2800,998.8348,-6.1457,-2.6915,7.1524,1590575613,N
73,2317482,-6.1352,-2.6800,7.2503,0.0700,0.1400,-0.2800,998.8351,-6.1351,-2.6868,7.1632,1590575614,N
73,2317821,-6.1161,-2.7470,7.1833,-0.5600,1.1200,0.2100,998.8353,-6.1396,-2.7003,7.1543,1590575614,N
73,2317211,-6.1926,-2.7111,7.1737,-0.7000,-0.7000,-0.1400,998.8347,-6.1413,-2.7040,7.1515,1590575614,N
73,2316708,-6.1304,-2.7613,7.2191,-1.0500,-0.0700,-0.0700,998.8342,-6.1351,-2.7183,7.1514,1590575614,N
73,2317338,-6.1208,-2.7637,7.2000,-0.6300,-0.0700,-0.1400,998.8334,-6.1286,-2.7293,7.1528,1590575614,N
73,2318578,-6.1950,-2.7709,7.1426,-0.7700,0.4200,-0.0700,998.8331,-6.1415,-2.7398,7.1377,1590575614,N
73,2319654,-6.2022,-2.7685,7.1019,-0.7700,-0.9100,-0.0700,998.8326,-6.1477,-2.7486,7.1289,1590575614,N
73,2320889,-6.1567,-2.7326,7.2287,-1.1200,-0.9100,0.2800,998.8323,-6.1402,-2.7460,7.1364,1590575614,N
73,2321863,-6.0993,-2.7733,7.2383,-0.4900,-0.9100,-0.0700,998.8324,-6.1205,-2.7510,7.1514,1590575614,N
73,2322968,-6.1591,-2.8283,7.2048,0.2800,0.8400,-0.2100,998.8325,-6.1210,-2.7613,7.1470,1590575614,N
73,2323479,-6.1184,-2.7852,7.1354,-0.1400,-0.6300,-0.1400,998.8325,-6.1165,-2.7675,7.1484,1590575615,N
73,2322670,-6.1017,-2.7398,7.2215,-0.4900,-0.3500,-0.1400,998.8327,-6.1079,-2.7631,7.1574,1590575615,N
72,2323133,-6.1615,-2.7876,7.2311,-0.4200,0.3500,-0.1400,998.8325,-6.1101,-2.7658,7.1545,1590575615,N
73,2324408,-6.1735,-2.7924,7.1569,-0.4200,-0.1400,-0.1400,998.8323,-6.1166,-2.7713,7.1468,1590575615,N
72,2325662,-6.1184,-2.7517,7.2072,-0.1400,-0.1400,-0.1400,998.8317,-6.1110,-2.7665,7.1535,1590575615,N
72,2326903,-6.1543,-2.7733,7.1593,-0.4200,-0.1400,0.2100,998.8309,-6.1173,-2.7674,7.1478,1590575615,N
73,2328221,-6.1831,-2.7781,7.1569,-0.4900,-0.2800,-0.0700,998.8297,-6.1237,-2.7696,7.1414,1590575615,N
73,2329541,-6.1137,-2.7757,7.2239,-0.2800,-0.2800,-0.0700,998.8289,-6.1137,-2.7695,7.1501,1590575615,N
72,2329972,-6.1878,-2.7637,7.1641,-0.6300,-0.4200,-0.0700,998.8284,-6.1209,-2.7689,7.1441,1590575615,N
72,2328962,-6.1352,-2.7685,7.1856,0.2800,0.1400,-0.3500,998.8278,-6.1169,-2.7667,7.1484,1590575615,N
72,2328603,-6.0730,-2.7852,7.1737,0.0700,0.2100,-0.0700,998.8271,-6.1093,-2.7706,7.1534,1590575616,N
73,2329354,-6.1424,-2.7805,7.1306,-0.0700,0.4200,-0.2100,998.8261,-6.1170,-2.7737,7.1456,1590575616,N
72,2330333,-6.1400,-2.7757,7.1067,0.2100,0.6300,-0.2800,998.8257,-6.1252,-2.7752,7.1380,1590575616,N
72,2331051,-6.1280,-2.8020,7.1521,0.1400,-0.9800,-0.2800,998.8250,-6.1148,-2.7795,7.1452,1590575616,N
72,2331670,-6.1352,-2.7805,7.2000,0.9100,-0.6300,-0.1400,998.8242,-6.1040,-2.7721,7.1573,1590575616,N
72,2333158,-6.0802,-2.7541,7.1713,1.1200,-0.5600,-0.2800,998.8234,-6.0910,-2.7638,7.1716,1590575616,N
72,2334163,-6.1256,-2.8403,7.2144,-3.6400,-7.3500,0.1400,998.8229,-6.0547,-2.7917,7.1915,1590575616,N
72,2333452,-5.6255,-3.2327,7.2024,-5.3900,-8.4000,-1.0500,998.8229,-5.9395,-2.9193,7.2367,1590575616,N
72,2333339,-5.8624,-2.8977,7.2933,-1.4000,-0.2100,0.6300,998.8228,-5.9323,-2.9208,7.2420,1590575616,N
72,2334497,-5.9821,-2.9121,7.3460,-1.7500,0.6300,0.7700,998.8230,-5.9442,-2.9198,7.2327,1590575616,N
72,2334822,-6.0012,-2.8762,7.3173,-0.7700,0.0700,0.0700,998.8229,-5.9491,-2.9103,7.2325,1590575617,N
72,2334857,-5.8720,-2.9910,7.3890,-3.2900,-3.7100,0.3500,998.8233,-5.9113,-2.9364,7.2529,1590575617,N
72,2335030,-5.8840,-2.9719,7.3196,-0.9800,-0.8400,0.4900,998.8231,-5.9009,-2.9440,7.2583,1590575617,N
72,2333995,-5.9629,-2.9145,7.3292,-0.1400,-0.5600,0.4900,998.8226,-5.9029,-2.9317,7.2617,1590575617,N
72,2333162,-5.9103,-2.9504,7.3962,-0.4200,-0.4200,0.2100,998.8223,-5.8910,-2.9302,7.2719,1590575617,N
72,2332472,-5.9174,-2.9432,7.3053,-1.4700,-1.1200,0.7000,998.8212,-5.8923,-2.9350,7.2689,1590575617,N
72,2330544,-5.8576,-2.9695,7.2885,-1.1900,-1.3300,0.1400,998.8204,-5.8809,-2.9472,7.2732,1590575617,N
72,2328784,-5.9270,-2.9264,7.4082,-0.1400,-0.4200,0.1400,998.8198,-5.8741,-2.9359,7.2833,1590575617,N
72,2328322,-5.8816,-2.9121,7.3220,0.0700,-0.7700,-0.3500,998.8197,-5.8653,-2.9303,7.2926,1590575617,N
72,2327163,-5.8935,-3.0796,7.4225,1.0500,1.8200,0.8400,998.8198,-5.8646,-2.9416,7.2886,1590575617,N
72,2326218,-5.8313,-3.0006,7.3508,0.7000,2.4500,-0.3500,998.8195,-5.8648,-2.9495,7.2853,1590575618,N
72,2326072,-6.0036,-2.7996,7.3292,0.9800,2.8700,-0.4200,998.8184,-5.8972,-2.9131,7.2737,1590575618,N
72,2326797,-5.9892,-2.9815,7.2455,-2.5200,-2.6600,-2.1000,998.8184,-5.8900,-2.9458,7.2664,1590575618,N
72,2326453,-5.8289,-2.9838,7.4991,0.2100,-0.0700,-1.5400,998.8179,-5.8515,-2.9501,7.2957,1590575618,N
72,2326637,-5.7787,-3.0820,7.3484,-1.7500,-1.1200,-0.9100,998.8171,-5.8269,-2.9877,7.3001,1590575618,N
72,2326260,-5.6734,-3.0532,7.2694,-1.6100,-1.4000,0.7700,998.8171,-5.8071,-3.0119,7.3059,1590575618,N
72,2325715,-5.8002,-2.9910,7.3077,-2.6600,-2.6600,1.4700,998.8165,-5.8057,-3.0159,7.3054,1590575618,N
72,2326023,-5.7906,-3.0173,7.3651,-1.3300,-3.7800,3.6400,998.8163,-5.7959,-3.0039,7.3181,1590575618,N
72,2327087,-5.7595,-3.0221,7.3675,0.5600,-0.3500,-0.1400,998.8155,-5.7810,-3.0034,7.3300,1590575618,N
72,2327143,-5.7882,-3.0389,7.3675,2.9400,0.6300,-1.1200,998.8154,-5.7656,-2.9959,7.3453,1590575618,N
72,2326325,-5.7643,-2.9982,7.4201,-0.4900,-0.8400,0.2800,998.8158,-5.7563,-2.9941,7.3533,1590575619,N
72,2326781,-5.8720,-3.0078,7.3364,-0.5600,-0.6300,0.6300,998.8165,-5.7732,-2.9934,7.3403,1590575619,N
72,2326460,-5.7835,-2.9312,7.4489,0.7000,-1.6100,1.1200,998.8164,-5.7595,-2.9671,7.3617,1590575619,N
72,2324391,-5.7021,-2.9408,7.4560,0.6300,-1.3300,0.9100,998.8161,-5.7378,-2.9517,7.3848,1590575619,N
72,2323353,-5.7619,-2.8929,7.4608,-0.2800,-0.7000,-0.3500,998.8159,-5.7310,-2.9395,7.3949,1590575619,N
72,2323837,-5.7500,-2.9910,7.4656,-0.3500,-0.4200,-0.3500,998.8161,-5.7222,-2.9482,7.3983,1590575619,N
72,2324520,-5.7069,-2.9192,7.4297,-0.3500,-0.4200,0.2800,998.8163,-5.7183,-2.9427,7.4035,1590575619,N
72,2325328,-5.7284,-2.9695,7.4512,0.1400,0.1400,0.1400,998.8165,-5.7156,-2.9437,7.4052,1590575619,N
71,2326121,-5.7356,-2.9527,7.3627,0.4200,0.7000,0.1400,998.8164,-5.7256,-2.9440,7.3974,1590575619,N
72,2327048,-5.8576,-2.9073,7.4847,0.2800,0.2100,0.1400,998.8167,-5.7375,-2.9268,7.3950,1590575619,N
71,2327912,-5.8265,-2.9384,7.4082,0.2800,0.4200,0.1400,998.8176,-5.7500,-2.9232,7.3866,1590575620,N
72,2328589,-5.8074,-2.9456,7.4249,0.2800,0.2800,0.0700,998.8185,-5.7545,-2.9218,7.3837,1590575620,N
71,2328315,-5.7739,-2.9073,7.4273,-0.0700,-0.2100,0.0700,998.8195,-5.7529,-2.9165,7.3870,1590575620,N
72,2329011,-5.7739,-2.9456,7.3962,-0.1400,-0.1400,-0.1400,998.8205,-5.7527,-2.9220,7.3850,1590575620,N
71,2330083,-5.7428,-2.9838,7.4752,-0.0700,-0.1400,-0.0700,998.8217,-5.7403,-2.9301,7.3914,1590575620,N
71,2331132,-5.8050,-2.9312,7.4465,0.0700,-0.4200,-0.2100,998.8224,-5.7397,-2.9258,7.3936,1590575620,N
71,2332281,-5.7188,-2.9121,7.4489,-0.4200,-0.8400,-0.1400,998.8225,-5.7278,-2.9241,7.4035,1590575620,N
72,2334157,-5.7500,-2.9073,7.4536,-0.5600,-0.2800,-0.0700,998.8230,-5.7268,-2.9215,7.4054,1590575620,N
71,2335625,-5.7763,-2.9838,7.4512,-0.5600,0.0700,-0.2800,998.8228,-5.7283,-2.9335,7.3994,1590575620,N
71,2336893,-5.7978,-2.9504,7.4584,-0.2800,0.3500,0.1400,998.8231,-5.7357,-2.9328,7.3940,1590575620,N
71,2336969,-5.7523,-2.9551,7.4297,-0.2800,0.3500,-0.0700,998.8236,-5.7370,-2.9368,7.3913,1590575621,N
71,2337297,-5.8026,-2.9145,7.4297,-0.2800,-0.2100,0.1400,998.8246,-5.7433,-2.9297,7.3893,1590575621,N
71,2338339,-5.7763,-2.9240,7.3819,-0.0700,0.0700,0.2800,998.8255,-5.7506,-2.9271,7.3846,1590575621,N
71,2339367,-5.7858,-2.8977,7.4178,0.1400,-0.0700,0.1400,998.8260,-5.7530,-2.9176,7.3865,1590575621,N
71,2340088,-5.7165,-2.9480,7.3890,-0.6300,-0.1400,-0.0700,998.8276,-5.7480,-2.9282,7.3862,1590575621,N
71,2341374,-5.8050,-2.9097,7.4178,0.1400,0.4200,-0.0700,998.8281,-5.7553,-2.9212,7.3833,1590575621,N
71,2341981,-5.8146,-2.9192,7.4465,0.5600,0.6300,-0.0700,998.8279,-5.7593,-2.9134,7.3833,1590575621,N
71,2342287,-5.7930,-2.9192,7.4249,-0.2800,-0.9800,-0.2100,998.8273,-5.7532,-2.9133,7.3880,1590575621,N
71,2341315,-5.7691,-2.9145,7.4512,-0.9100,-1.3300,0.4200,998.8268,-5.7462,-2.9129,7.3937,1590575621,N
71,2340819,-5.7571,-2.8881,7.4417,-0.9100,-0.9800,-0.2100,998.8273,-5.7401,-2.9115,7.3990,1590575621,N
71,2341031,-5.8026,-2.9025,7.4321,0.2100,-0.2100,-0.7000,998.8275,-5.7400,-2.9078,7.4005,1590575622,N
71,2341442,-5.7523,-2.9240,7.4321,-0.6300,-0.5600,0.0700,998.8282,-5.7372,-2.9120,7.4011,1590575622,N
71,2342127,-5.7523,-2.9025,7.4321,-0.5600,-0.7000,-0.2800,998.8282,-5.7327,-2.9124,7.4043,1590575622,N
71,2342405,-5.7978,-2.9025,7.4584,-0.4900,-1.1200,-0.0700,998.8289,-5.7308,-2.9084,7.4074,1590575622,N
71,2342390,-5.6949,-2.9384,7.4512,-0.4900,-0.4200,-0.0700,998.8298,-5.7198,-2.9161,7.4129,1590575622,N
71,2342147,-5.7476,-2.9216,7.4752,0.3500,-0.0700,-0.3500,998.8296,-5.7142,-2.9127,7.4185,1590575622,N
71,2342318,-5.7045,-2.9336,7.5135,-0.4900,0.0700,-0.2100,998.8293,-5.7052,-2.9164,7.4240,1590575622,N
71,2342500,-5.7571,-2.9456,7.4752,0.1400,0.2100,-0.4900,998.8301,-5.7050,-2.9190,7.4231,1590575622,N
71,2342503,-5.7547,-2.8953,7.4560,-0.1400,-0.3500,-0.4900,998.8314,-5.7052,-2.9142,7.4248,1590575622,N
71,2343134,-5.7667,-2.9001,7.4800,-0.3500,-0.2100,0.0700,998.8324,-5.7092,-2.9087,7.4239,1590575622,N
71,2343790,-5.7930,-2.8786,7.4800,-0.4200,-0.1400,0.3500,998.8336,-5.7187,-2.8988,7.4205,1590575623,N
71,2345455,-5.7188,-2.9527,7.4512,-0.7700,-0.1400,0.3500,998.8345,-5.7178,-2.9102,7.4167,1590575623,N
71,2346878,-5.7643,-2.9527,7.4704,0.2800,0.9100,-0.0700,998.8352,-5.7225,-2.9131,7.4119,1590575623,N
71,2347203,-5.7954,-2.9001,7.4728,-0.4200,-0.0700,0.2800,998.8352,-5.7297,-2.9068,7.4089,1590575623,N
71,2347560,-5.7308,-2.9216,7.5350,-0.3500,-0.2100,0.2800,998.8348,-5.7196,-2.9046,7.4175,1590575623,N
71,2347043,-5.7858,-2.9791,7.3771,-0.2100,0.1400,-0.0700,998.8342,-5.7307,-2.9193,7.4032,1590575623,N
71,2346308,-5.7691,-2.9719,7.4010,-0.0700,0.1400,-0.3500,998.8333,-5.7336,-2.9296,7.3968,1590575623,N
71,2346541,-5.8241,-2.9240,7.4680,-0.6300,-0.4200,-0.0700,998.8329,-5.7386,-2.9260,7.3944,1590575623,N
71,2347604,-5.8050,-2.9240,7.4441,-0.5600,-0.6300,-0.0700,998.8327,-5.7404,-2.9243,7.3936,1590575623,N
71,2348623,-5.7619,-2.9360,7.4632,-0.0700,-0.0700,-0.2100,998.8326,-5.7355,-2.9239,7.3977,1590575623,N
71,2349640,-5.7715,-2.9121,7.4106,-0.3500,-0.0700,-0.2100,998.8328,-5.7393,-2.9228,7.3951,1590575624,N
71,2351278,-5.7380,-2.9815,7.4560,-1.1900,-0.6300,-0.2100,998.8329,-5.7308,-2.9382,7.3956,1590575624,N
71,2352866,-5.6997,-2.9504,7.4225,-0.5600,-0.2800,-0.0700,998.8328,-5.7238,-2.9437,7.3989,1590575624,N
71,2352609,-5.7332,-2.9145,7.4010,-0.3500,-0.0700,0.3500,998.8330,-5.7284,-2.9385,7.3973,1590575624,N
71,2351682,-5.8241,-2.9958,7.4393,-0.3500,-0.4200,-0.2100,998.8326,-5.7327,-2.9463,7.3909,1590575624,N
71,2352224,-5.7356,-2.9982,7.4584,0.2800,-0.4200,-0.5600,998.8323,-5.7187,-2.9530,7.3991,1590575624,N
71,2353029,-5.7260,-2.9743,7.4345,0.2800,-0.4200,-0.2800,998.8321,-5.7105,-2.9543,7.4049,1590575624,N
71,2353530,-5.7356,-2.9408,7.4800,0.4200,-0.4200,-0.2100,998.8318,-5.7023,-2.9457,7.4147,1590575624,N
71,2354316,-5.7332,-2.8834,7.4776,-0.1400,-0.4200,-0.1400,998.8323,-5.7001,-2.9316,7.4220,1590575624,N
71,2354724,-5.7667,-2.9838,7.4656,-0.1400,-0.2800,-0.1400,998.8334,-5.7011,-2.9380,7.4186,1590575624,N
71,2355238,-5.7811,-2.9384,7.4919,0.2800,0.1400,-0.2100,998.8347,-5.7041,-2.9313,7.4190,1590575625,N
71,2355241,-5.7547,-2.9312,7.4297,1.6100,1.1900,-0.9100,998.8350,-5.7074,-2.9241,7.4193,1590575625,N
71,2353999,-5.8696,-2.9647,7.4178,1.8900,0.2800,-2.5200,998.8354,-5.7097,-2.9256,7.4169,1590575625,N
71,2353984,-5.7715,-2.9145,7.4536,-0.9100,0.0700,-1.0500,998.8359,-5.7138,-2.9297,7.4122,1590575625,N
71,2354690,-5.7835,-2.9599,7.4369,-2.6600,-0.9800,0.2100,998.8359,-5.7240,-2.9458,7.3979,1590575625,N
71,2356005,-5.7404,-2.9815,7.3675,-2.4500,-0.4900,0.5600,998.8356,-5.7361,-2.9649,7.3809,1590575625,N
71,2358140,-5.7523,-2.9384,7.4608,-0.9800,-0.3500,0.5600,998.8347,-5.7362,-2.9591,7.3831,1590575625,N
71,2359963,-5.7500,-2.9982,7.4201,-0.7000,-0.7700,0.2800,998.8339,-5.7321,-2.9664,7.3834,1590575625,N
71,2361692,-5.7332,-2.9647,7.3771,-0.4900,-0.6300,0.1400,998.8338,-5.7311,-2.9683,7.3834,1590575625,N
71,2363059,-5.6997,-2.9623,7.3890,0.3500,0.5600,-0.4900,998.8335,-5.7267,-2.9684,7.3867,1590575625,N
71,2362972,-5.7715,-3.0197,7.4824,-0.6300,-0.1400,-0.4900,998.8338,-5.7214,-2.9774,7.3872,1590575626,N
70,2362922,-5.7476,-2.9934,7.3627,-0.7000,-0.7700,-0.4900,998.8332,-5.7214,-2.9862,7.3837,1590575626,N
71,2364336,-5.7763,-3.0293,7.4393,-0.7000,0.5600,-0.2800,998.8325,-5.7271,-2.9952,7.3756,1590575626,N
71,2365933,-5.7260,-2.9934,7.4824,-0.4900,0.1400,-0.2100,998.8315,-5.7194,-2.9939,7.3821,1590575626,N
71,2367058,-5.8002,-2.9647,7.3723,-0.9100,-0.9800,-0.2800,998.8308,-5.7272,-2.9921,7.3767,1590575626,N
70,2368427,-5.6542,-2.9910,7.4369,-0.9100,-0.8400,-0.2800,998.8311,-5.7086,-2.9978,7.3889,1590575626,N
71,2369506,-5.7165,-2.9815,7.4369,0.1400,0.5600,-0.2800,998.8318,-5.7079,-2.9931,7.3913,1590575626,N
71,2370547,-5.7667,-3.0461,7.4489,0.0700,0.5600,-0.4900,998.8323,-5.7099,-3.0000,7.3870,1590575626,N
71,2370921,-5.7691,-3.0197,7.4321,-0.5600,-0.2800,0.0700,998.8321,-5.7135,-3.0022,7.3833,1590575626,N
71,2369698,-5.7045,-3.0389,7.4273,-0.3500,-0.5600,-0.2800,998.8332,-5.7033,-3.0100,7.3880,1590575626,N
71,2369885,-5.7547,-3.0413,7.4010,-0.1400,-0.2100,-0.2100,998.8331,-5.7059,-3.0148,7.3841,1590575627,N
71,2370673,-5.7045,-3.0508,7.4297,-0.3500,-0.4200,-0.1400,998.8322,-5.6981,-3.0216,7.3873,1590575627,N
71,2371836,-5.7571,-3.0556,7.3986,-0.2100,-0.2800,-0.2100,998.8316,-5.7016,-3.0271,7.3824,1590575627,N
71,2372973,-5.7308,-2.9719,7.3962,-0.2100,-0.5600,-0.1400,998.8312,-5.7025,-3.0168,7.3858,1590575627,N
71,2373746,-5.7165,-3.0126,7.4608,-0.2100,-0.5600,0.1400,998.8314,-5.6956,-3.0124,7.3930,1590575627,N
71,2374978,-5.7691,-2.9432,7.4273,-0.2800,0.3500,-0.2800,998.8315,-5.7068,-2.9988,7.3899,1590575627,N
71,2376455,-5.7141,-3.0724,7.4249,-0.2100,0.2100,-1.1900,998.8322,-5.6984,-3.0166,7.3891,1590575627,N
71,2375751,-5.7332,-3.0485,7.4058,-0.7000,0.0700,-0.5600,998.8329,-5.7007,-3.0269,7.3831,1590575627,N
71,2374901,-5.7260,-3.0437,7.3938,-0.4200,-0.1400,0.2100,998.8335,-5.7041,-3.0300,7.3792,1590575627,N
71,2375588,-5.7452,-3.0485,7.4608,-0.2100,0.0700,0.4200,998.8342,-5.7050,-3.0276,7.3795,1590575627,N
71,2376611,-5.7452,-3.0413,7.3723,0.2800,0.2800,0.1400,998.8339,-5.7120,-3.0269,7.3744,1590575628,N
71,2377589,-5.7165,-3.0796,7.4536,0.9100,0.1400,0.4200,998.8334,-5.7035,-3.0255,7.3815,1590575628,N
71,2377763,-5.8074,-3.0150,7.4201,0.6300,0.8400,1.4000,998.8335,-5.7244,-3.0090,7.3721,1590575628,N
71,2377874,-5.7882,-3.0006,7.4321,-0.2100,-0.7700,0.8400,998.8334,-5.7275,-2.9997,7.3735,1590575628,N
71,2378635,-5.7595,-3.0413,7.4441,1.5400,1.3300,0.7700,998.8329,-5.7312,-2.9913,7.3740,1590575628,N
71,2378421,-5.8146,-3.0365,7.4154,0.6300,0.0700,2.2400,998.8320,-5.7460,-2.9814,7.3664,1590575628,N
71,2377654,-5.7882,-3.0221,7.4082,1.8900,-0.0700,3.8500,998.8310,-5.7580,-2.9579,7.3666,1590575628,N
71,2378151,-5.7882,-2.9097,7.4178,2.5200,-0.5600,2.3800,998.8303,-5.7578,-2.9205,7.3816,1590575628,N
71,2378333,-5.8002,-2.7996,7.3843,2.7300,0.5600,2.6600,998.8295,-5.7740,-2.8699,7.3889,1590575628,N
71,2377883,-5.8696,-2.6847,7.3651,6.5800,5.9500,5.6700,998.8291,-5.8376,-2.7745,7.3753,1590575628,N
71,2377450,-6.0371,-2.5077,7.4034,13.3000,12.3900,7.9800,998.8287,-5.9371,-2.6131,7.3548,1590575629,N
71,2381738,-6.1615,-2.4407,7.3723,4.4100,6.7200,-0.1400,998.8289,-5.9928,-2.5521,7.3310,1590575629,N
71,2390905,-6.1567,-2.3761,7.2455,-2.7300,-1.6800,-2.1000,998.8283,-6.0151,-2.5413,7.3165,1590575629,N
71,2399929,-6.1902,-2.4526,7.2479,-0.4900,-0.3500,-1.2600,998.8282,-6.0383,-2.5302,7.3012,1590575629,N
71,2406300,-6.0706,-2.4168,7.3292,-2.4500,-2.3100,0.1400,998.8286,-6.0392,-2.5191,7.3043,1590575629,N
71,2412651,-6.0491,-2.4479,7.2742,-2.4500,-0.6300,0.7000,998.8286,-6.0559,-2.5171,7.2911,1590575629,N
71,2418562,-6.1472,-2.4550,7.3149,-0.1400,-0.5600,0.2800,998.8282,-6.0652,-2.5012,7.2889,1590575629,N
71,2423725,-6.1615,-2.4287,7.3364,0.1400,-0.5600,0.2100,998.8287,-6.0716,-2.4809,7.2905,1590575629,N
71,2428515,-6.0754,-2.4622,7.3388,0.7700,-0.5600,0.0700,998.8292,-6.0613,-2.4706,7.3025,1590575629,N
71,2432785,-6.1089,-2.4287,7.3866,-0.2800,0.2800,0.7000,998.8300,-6.0678,-2.4569,7.3018,1590575629,N
70,2436934,-6.0658,-2.4622,7.3053,-0.7700,-0.4900,0.7700,998.8310,-6.0716,-2.4586,7.2981,1590575630,N
71,2440388,-6.1065,-2.4574,7.3173,0.0700,-0.4900,0.9800,998.8319,-6.0760,-2.4518,7.2967,1590575630,N
70,2442758,-6.0897,-2.4383,7.3484,-1.1900,-0.6300,1.6800,998.8330,-6.0839,-2.4460,7.2920,1590575630,N
71,2445202,-6.1184,-2.3785,7.3101,-1.6800,-0.9100,3.5000,998.8345,-6.1100,-2.4254,7.2771,1590575630,N
70,2447766,-6.0754,-2.4191,7.3292,-0.5600,-0.2800,1.8900,998.8356,-6.1125,-2.4182,7.2774,1590575630,N
70,2450094,-6.1711,-2.3928,7.3508,0.7000,-0.4200,-0.2800,998.8363,-6.1061,-2.4062,7.2867,1590575630,N
70,2452926,-6.0012,-2.4263,7.3771,0.5600,0.0700,-0.6300,998.8363,-6.0784,-2.4096,7.3087,1590575630,N
70,2455623,-6.1711,-2.4574,7.3603,0.1400,0.4200,0.2100,998.8366,-6.0869,-2.4123,7.3008,1590575630,N
70,2458266,-6.1089,-2.4048,7.3412,-0.4900,-0.3500,0.7000,998.8377,-6.0900,-2.4083,7.2995,1590575630,N
70,2460495,-6.0634,-2.3689,7.3843,0.2100,-0.3500,0.2800,998.8376,-6.0784,-2.3961,7.3131,1590575630,N
70,2462126,-6.1089,-2.4120,7.3962,0.1400,-0.1400,-0.2100,998.8376,-6.0712,-2.3952,7.3194,1590575631,N
70,2464318,-6.1232,-2.4191,7.3627,0.0700,-0.1400,-0.0700,998.8380,-6.0712,-2.3964,7.3190,1590575631,N
70,2466769,-6.0491,-2.4215,7.3508,0.0700,-0.2100,0.0700,998.8383,-6.0634,-2.3999,7.3243,1590575631,N
69,2468918,-6.1017,-2.3713,7.3531,0.0700,-0.3500,-0.0700,998.8380,-6.0633,-2.3921,7.3270,1590575631,N
70,2471072,-6.0658,-2.3809,7.3388,0.3500,0.4900,-0.2100,998.8378,-6.0633,-2.3886,7.3281,1590575631,N
70,2473295,-6.1184,-2.3593,7.3412,0.1400,0.2800,-0.0700,998.8373,-6.0706,-2.3806,7.3247,1590575631,N
70,2474951,-6.1232,-2.4168,7.3292,-0.2100,-0.4200,0.2100,998.8369,-6.0749,-2.3857,7.3194,1590575631,N
69,2476740,-6.0467,-2.3737,7.3508,0.2100,-0.3500,0.2100,998.8369,-6.0667,-2.3810,7.3278,1590575631,N
70,2478027,-6.1280,-2.3928,7.3890,-0.1400,0.0700,0.1400,998.8376,-6.0702,-2.3794,7.3254,1590575631,N
69,2479720,-6.1113,-2.4455,7.3914,-0.1400,0.4900,-0.1400,998.8384,-6.0704,-2.3897,7.3219,1590575631,N
70,2481744,-6.1065,-2.3904,7.3675,0.1400,0.4900,-0.0700,998.8384,-6.0728,-2.3868,7.3208,1590575632,N
70,2483817,-6.0849,-2.3737,7.3005,-0.1400,0.4900,0.3500,998.8391,-6.0825,-2.3842,7.3136,1590575632,N
70,2485262,-6.1472,-2.3856,7.3603,0.2100,0.2100,-0.0700,998.8395,-6.0861,-2.3800,7.3120,1590575632,N
70,2486813,-6.0610,-2.3880,7.3555,0.0700,-0.2100,-0.0700,998.8397,-6.0766,-2.3805,7.3197,1590575632,N
70,2488142,-6.1304,-2.4144,7.3890,0.2800,-0.2100,-0.2800,998.8400,-6.0715,-2.3823,7.3234,1590575632,N
70,2489474,-6.1137,-2.3474,7.3364,0.7700,0.4900,-0.2800,998.8395,-6.0745,-2.3710,7.3245,1590575632,N
70,2490239,-6.0610,-2.3450,7.3890,1.9600,1.4000,0.7700,998.8399,-6.0720,-2.3504,7.3333,1590575632,N
71,2491291,-6.1615,-2.3498,7.3268,3.7800,2.5900,1.3300,998.8401,-6.0899,-2.3218,7.3275,1590575632,N
70,2494026,-6.1376,-2.2493,7.3388,3.5700,3.9900,1.4700,998.8400,-6.1140,-2.2813,7.3202,1590575632,N
71,2498180,-6.2166,-2.2397,7.2885,-1.8900,-1.6800,0.1400,998.8405,-6.1294,-2.2811,7.3074,1590575632,N
71,2502463,-6.1376,-2.2397,7.3579,0.9800,0.4900,-0.4900,998.8415,-6.1224,-2.2680,7.3173,1590575633,N
71,2507189,-6.1591,-2.2660,7.3508,-0.2100,-0.4200,0.0700,998.8418,-6.1224,-2.2662,7.3179,1590575633,N
71,2511709,-6.1041,-2.2875,7.3508,-3.8500,-2.0300,0.1400,998.8422,-6.1230,-2.2899,7.3100,1590575633,N
71,2514856,-6.2142,-2.3115,7.2981,-4.5500,-2.4500,-0.7000,998.8427,-6.1364,-2.3194,7.2894,1590575633,N
71,2513641,-6.3912,-4.0917,7.1761,-5.4600,12.0400,-13.5800,998.8424,-6.1604,-2.7144,7.1310,1590575633,N
71,2506210,-6.3410,-2.2134,7.1115,42.8400,14.5600,-21.6300,998.8426,-5.9954,-2.4728,7.3560,1590575633,N
71,2495111,-7.3531,-3.8118,7.7456,55.0900,22.4000,-50.1200,998.8423,-5.7012,-2.4536,7.5925,1590575633,N
71,2477835,-6.6640,-0.0742,8.3605,142.2400,-6.4400,-39.6200,998.8427,-9.1077,-2.2356,2.8675,1590575633,N
71,2457707,-4.9914,-0.5360,8.3773,-24.8500,-55.1600,-24.2200,998.8426,-4.1715,-1.0981,8.8070,1590575633,N
71,2442929,-4.7282,-1.9789,8.3438,-53.6200,-65.6600,-6.6500,998.8428,-4.1674,-1.6181,8.7284,1590575633,N
71,2433565,-2.0124,-2.6297,8.0566,63.5600,-66.5000,-21.0000,998.8416,-2.8106,-1.1308,9.3270,1590575634,N
71,2424954,-3.2231,2.7182,8.6429,118.8600,-58.7300,2.0300,998.8405,-6.9796,-0.5204,6.8691,1590575634,N
71,2409247,-1.2179,-0.3852,6.5157,42.7000,1.3300,-17.7800,998.8395,-6.9493,-0.4858,6.9023,1590575634,N
71,2383830,-3.4433,-0.0144,5.1517,-57.6800,91.1400,-26.1800,998.8387,-7.9233,-1.1053,5.6719,1590575634,N
71,2357058,-7.1593,4.4961,18.7191,23.4500,46.8300,-31.9900,998.8376,-8.4440,-1.0104,4.8835,1590575634,N
71,2339893,-6.0778,-2.9312,5.3527,-80.8500,66.5700,21.9100,998.8356,-4.6882,-0.9382,8.5622,1590575634,N
71,2328622,-3.4911,-2.3809,10.6385,-33.7400,13.0200,0.0700,998.8347,-5.0401,-1.3840,8.2977,1590575634,N
71,2319132,-4.5368,-2.8140,6.6473,17.5700,-10.8500,16.5200,998.8334,-4.9508,-1.3955,8.3494,1590575634,N
71,2308691,-8.0327,-4.0319,8.3342,-1.2600,2.9400,-7.5600,998.8314,-5.2237,-1.6722,8.1294,1590575634,N
70,2297670,-5.4054,-3.3787,7.4010,-5.3200,-0.3500,5.0400,998.8292,-5.3974,-2.0348,7.9308,1590575634,N
71,2284864,-5.8935,-2.9097,7.3364,1.2600,7.6300,-4.4800,998.8282,-5.5423,-2.2270,7.7778,1590575635,N
71,2258577,-5.8552,-2.7159,7.6164,8.4000,20.8600,-16.2400,998.8269,-5.6159,-2.3447,7.6899,1590575635,N
71,2231262,-6.3147,-3.1968,6.7502,-6.5100,-12.6000,-5.1800,998.8258,-5.7082,-2.5798,7.5453,1590575635,N
71,2212868,-5.5418,-3.4241,7.4441,-14.8400,-30.5900,8.0500,998.8245,-5.5659,-2.7767,7.5816,1590575635,N
71,2198920,-5.3815,-3.5127,7.3962,12.3200,7.5600,3.7100,998.8239,-5.5553,-2.8391,7.5663,1590575635,N
71,2186194,-5.7954,-3.0580,7.3412,3.5000,-1.2600,8.3300,998.8241,-5.6189,-2.8255,7.5243,1590575635,N
71,2174481,-5.6064,-3.0078,7.5733,5.2500,-1.6800,5.4600,998.8247,-5.6010,-2.8016,7.5465,1590575635,N
71,2164339,-5.7045,-2.8546,7.5302,3.9900,-0.5600,2.1700,998.8251,-5.6050,-2.7754,7.5533,1590575635,N
71,2154165,-5.5633,-2.8092,7.6594,4.1300,-1.7500,-0.9800,998.8252,-5.5548,-2.7558,7.5973,1590575635,N
71,2134167,-5.6399,-2.8786,7.5972,2.4500,-0.2100,-0.9800,998.8256,-5.5461,-2.7644,7.6006,1590575635,N
71,2112451,-5.6351,-2.8307,7.5709,2.4500,-0.2100,0.2100,998.8258,-5.5480,-2.7591,7.6011,1590575636,N
71,2097943,-5.6662,-2.7565,7.5565,2.6600,-0.6300,0.6300,998.8257,-5.5553,-2.7376,7.6036,1590575636,N
71,2087500,-5.5968,-2.7565,7.5709,2.4500,-0.6300,1.4000,998.8258,-5.5552,-2.7202,7.6099,1590575636,N
71,2079448,-5.6399,-2.6967,7.6140,1.5400,0.2800,0.7000,998.8256,-5.5656,-2.7011,7.6091,1590575636,N
71,2073508,-5.6327,-2.6728,7.6116,0.1400,-0.0700,-0.1400,998.8252,-5.5735,-2.6933,7.6061,1590575636,N
71,2069450,-5.6160,-2.7063,7.5733,0.4200,0.8400,0.3500,998.8245,-5.5874,-2.6925,7.5961,1590575636,N
71,2066298,-5.5944,-2.7326,7.5733,0.4900,1.0500,0.3500,998.8243,-5.5961,-2.6971,7.5881,1590575636,N
71,2057860,-5.6255,-2.6441,7.5470,1.8900,1.8900,-0.9100,998.8231,-5.6057,-2.6816,7.5865,1590575636,N
71,2045484,-5.5513,-2.7135,7.5876,-0.7700,-1.1200,-2.3100,998.8222,-5.5814,-2.7023,7.5971,1590575636,N
71,2037593,-5.6183,-2.7829,7.6331,-1.1900,0.6300,-0.9800,998.8215,-5.5854,-2.7260,7.5857,1590575636,N
72,2033594,-5.6830,-2.7470,7.5326,-0.7000,1.1900,-0.4200,998.8212,-5.6117,-2.7360,7.5627,1590575637,N
71,2030481,-5.6279,-2.7589,7.6187,-0.7700,0.9100,-1.0500,998.8203,-5.6125,-2.7468,7.5581,1590575637,N
71,2028813,-5.6399,-2.7876,7.6259,-1.1200,1.6100,-1.7500,998.8208,-5.6161,-2.7655,7.5486,1590575637,N
71,2027926,-5.6614,-2.7876,7.5039,-1.6100,2.2400,-3.7800,998.8212,-5.6289,-2.7968,7.5275,1590575637,N
72,2027470,-5.6758,-2.9408,7.5470,-2.5900,-0.2800,-5.8800,998.8216,-5.6088,-2.8601,7.5188,1590575637,N
71,2024284,-5.6136,-3.1442,7.4680,-2.4500,0.2100,-5.8100,998.8217,-5.5878,-2.9525,7.4986,1590575637,N
71,2021316,-5.5490,-3.1155,7.5015,-2.8000,2.5200,-4.6200,998.8214,-5.5825,-3.0210,7.4753,1590575637,N
71,2023989,-5.5992,-3.1825,7.4034,-5.1100,4.2000,-7.1400,998.8212,-5.5984,-3.1167,7.4239,1590575637,N
71,2030025,-5.6973,-3.4217,7.3771,-4.5500,-0.9100,-7.5600,998.8218,-5.5790,-3.2278,7.3910,1590575637,N
71,2032170,-5.5992,-3.5462,7.3268,-1.1900,-1.4000,-3.5700,998.8224,-5.5537,-3.3073,7.3748,1590575637,N
71,2036105,-5.4700,-3.5533,7.3675,0.8400,-0.6300,0.7700,998.8234,-5.5305,-3.3453,7.3752,1590575638,N
71,2041691,-5.5035,-3.4600,7.4297,0.8400,0.4900,2.3800,998.8237,-5.5295,-3.3489,7.3742,1590575638,N
72,2048129,-5.5346,-3.4505,7.4560,0.2800,-0.2800,2.7300,998.8239,-5.5294,-3.3489,7.3744,1590575638,N
71,2051498,-5.6303,-3.3428,7.3340,2.5200,-0.4900,3.7800,998.8246,-5.5532,-3.3145,7.3720,1590575638,N
71,2048615,-5.5705,-3.2423,7.4321,2.4500,-1.6100,3.0800,998.8253,-5.5491,-3.2691,7.3954,1590575638,N
71,2045983,-5.6136,-3.2255,7.4345,1.8200,-0.7700,1.1200,998.8262,-5.5503,-3.2408,7.4069,1590575638,N
72,2046203,-5.5274,-3.2399,7.5613,0.2100,-0.8400,-0.5600,998.8273,-5.5252,-3.2343,7.4285,1590575638,N
72,2046061,-5.5585,-3.2758,7.5135,-0.7000,1.1900,-1.8900,998.8283,-5.5225,-3.2492,7.4240,1590575638,N
72,2045813,-5.5083,-3.3380,7.4249,-1.0500,0.4200,-2.9400,998.8289,-5.5097,-3.2844,7.4180,1590575638,N
72,2045810,-5.5513,-3.4050,7.4058,-0.7700,-0.7700,-1.6100,998.8295,-5.5018,-3.3155,7.4100,1590575638,N
72,2046586,-5.5825,-3.4409,7.4465,0.7700,-0.3500,1.1900,998.8297,-5.5058,-3.3226,7.4038,1590575639,N
72,2045205,-5.5633,-3.2710,7.4943,1.8200,-0.8400,1.6100,998.8312,-5.5040,-3.2883,7.4205,1590575639,N
72,2038520,-5.4939,-3.2758,7.5159,1.7500,-2.1000,1.4000,998.8315,-5.4817,-3.2635,7.4479,1590575639,N
72,2035017,-5.4126,-3.2566,7.6738,1.1200,-2.1000,2.5200,998.8315,-5.4474,-3.2347,7.4855,1590575639,N
72,2036538,-5.5298,-3.1083,7.4895,3.0800,0.4200,2.9400,998.8318,-5.4692,-3.1784,7.4937,1590575639,N
72,2038115,-5.5825,-3.0748,7.5159,2.3100,-1.6100,1.8200,998.8323,-5.4761,-3.1318,7.5083,1590575639,N
72,2039820,-5.4269,-3.1107,7.6020,2.3100,-1.4000,0.3500,998.8323,-5.4460,-3.1085,7.5398,1590575639,N
72,2042133,-5.3480,-3.0317,7.6522,-0.0700,-0.2100,0.8400,998.8325,-5.4284,-3.0896,7.5603,1590575639,N
72,2044477,-5.4987,-2.9982,7.6642,-0.8400,2.3800,-1.4700,998.8335,-5.4450,-3.0789,7.5527,1590575639,N
72,2044417,-5.5370,-3.1035,7.5398,-2.8000,0.3500,-4.8300,998.8342,-5.4477,-3.1178,7.5347,1590575639,N
72,2038622,-5.4197,-3.1992,7.5470,-2.1000,-0.9800,-4.5500,998.8350,-5.4194,-3.1633,7.5362,1590575640,N
72,2035174,-5.3910,-3.3428,7.5541,-0.7700,-0.0700,-0.5600,998.8350,-5.4072,-3.2022,7.5285,1590575640,N
72,2036187,-5.4652,-3.2758,7.5494,1.0500,-0.2800,2.4500,998.8342,-5.4167,-3.1955,7.5245,1590575640,N
72,2038065,-5.3862,-3.2064,7.5661,2.2400,-0.6300,2.6600,998.8338,-5.4089,-3.1713,7.5404,1590575640,N
72,2039646,-5.4174,-3.1537,7.5852,1.4000,-0.1400,1.4700,998.8325,-5.4079,-3.1510,7.5496,1590575640,N
72,2041294,-5.4269,-3.0843,7.5996,0.5600,-0.0700,0.1400,998.8314,-5.4069,-3.1318,7.5583,1590575640,N
72,2043140,-5.4748,-3.1394,7.5829,-0.0700,0.0700,-1.1900,998.8301,-5.4092,-3.1349,7.5554,1590575640,N
72,2043890,-5.3456,-3.1322,7.6714,-1.3300,-0.7700,-1.4000,998.8289,-5.3835,-3.1441,7.5698,1590575640,N
72,2039204,-5.3767,-3.1777,7.5900,0.2100,1.1900,0.7000,998.8282,-5.3903,-3.1464,7.5641,1590575640,N
72,2035915,-5.5059,-3.0915,7.5494,0.5600,0.4200,0.2100,998.8273,-5.4113,-3.1293,7.5561,1590575640,N
73,2037053,-5.4054,-3.0843,7.6259,-0.4900,0.2800,-0.7000,998.8262,-5.4066,-3.1241,7.5617,1590575641,N
73,2038467,-5.4485,-3.1633,7.5541,-0.4900,0.7000,-0.4900,998.8252,-5.4160,-3.1357,7.5502,1590575641,N
72,2039634,-5.4485,-3.2160,7.5733,-0.0700,0.0700,-0.4200,998.8243,-5.4145,-3.1499,7.5453,1590575641,N
73,2041357,-5.4676,-3.1609,7.5852,0.2800,0.2100,-0.4200,998.8247,-5.4166,-3.1482,7.5445,1590575641,N
73,2043461,-5.4748,-3.1777,7.5685,-0.1400,-0.1400,-0.4200,998.8256,-5.4191,-3.1527,7.5408,1590575641,N
73,2044954,-5.4269,-3.0915,7.6427,0.2800,-0.4200,-0.4200,998.8260,-5.4080,-3.1361,7.5557,1590575641,N
73,2041712,-5.3910,-3.1466,7.6211,0.0700,-0.4200,0.0700,998.8266,-5.3969,-3.1342,7.5644,1590575641,N
73,2038907,-5.3982,-3.1513,7.6140,0.2800,-0.2800,-0.1400,998.8266,-5.3888,-3.1334,7.5706,1590575641,N
73,2040066,-5.4006,-3.1513,7.5637,0.4900,-0.3500,-0.0700,998.8262,-5.3859,-3.1335,7.5725,1590575641,N
73,2042009,-5.4796,-3.1537,7.5805,0.4900,-0.3500,-0.0700,998.8262,-5.3931,-3.1304,7.5687,1590575641,N
73,2043671,-5.3982,-3.1848,7.7216,1.7500,0.4200,-0.3500,998.8260,-5.3742,-3.1234,7.5850,1590575642,N
73,2045220,-5.4461,-3.1513,7.5972,1.1900,-0.4200,-0.2800,998.8263,-5.3738,-3.1187,7.5872,1590575642,N
73,2047295,-5.3982,-3.1035,7.5757,1.3300,0.0700,-0.0700,998.8263,-5.3741,-3.1078,7.5915,1590575642,N
73,2049128,-5.4676,-3.0867,7.6020,-0.2800,-0.2800,-0.2100,998.8257,-5.3850,-3.1026,7.5859,1590575642,N
73,2047238,-5.4317,-3.1059,7.6427,0.0700,0.2100,0.0700,998.8253,-5.3881,-3.0983,7.5855,1590575642,N
73,2043781,-5.4006,-3.1729,7.5900,-0.2100,-0.0700,-0.0700,998.8251,-5.3868,-3.1125,7.5805,1590575642,N
73,2043635,-5.4317,-3.1394,7.6427,-0.2100,0.0700,-0.0700,998.8259,-5.3878,-3.1144,7.5791,1590575642,N
73,2045674,-5.4078,-3.1681,7.6690,0.1400,0.0700,-0.0700,998.8255,-5.3808,-3.1184,7.5824,1590575642,N
