0,2465469,0.8016,0.5336,9.7579,0.2100,1.8200,-0.0700,1002.5286,0.8017,0.5337,9.7592,1590683632,N
0,2471833,0.8279,0.5073,9.7460,2.4500,0.8400,0.9800,1002.5417,0.8172,0.5477,9.7572,1590683632,N
0,2471583,0.7585,0.5647,9.7914,2.1700,0.4900,0.9800,1002.5533,0.8154,0.5685,9.7561,1590683632,N
0,2471359,0.8590,0.4977,9.7795,3.4300,0.9100,1.5400,1002.5640,0.8411,0.5818,9.7532,1590683632,N
0,2147483647,0.7394,0.3924,9.8345,-2.3100,0.4900,-0.2800,1002.5738,0.8012,0.5208,9.7600,1590683632,N
0,2147483647,0.7801,0.5647,9.8345,-0.4900,-0.5600,0.0700,1002.5827,0.7970,0.5256,9.7601,1590683632,N
0,1027012,0.7466,0.5408,9.8082,0.0700,-0.4900,-0.8400,1002.5904,0.7901,0.5307,9.7604,1590683633,N
0,1216862,0.7226,0.4738,9.8704,0.1400,-2.2400,-1.4700,1002.5975,0.7953,0.5271,9.7601,1590683633,N
0,1220028,0.8160,0.5815,9.8895,-1.5400,-1.6100,-1.6800,1002.6038,0.8003,0.5282,9.7597,1590683633,N
0,1920132,0.9284,0.5503,9.9135,3.4300,-1.2600,-3.2200,1002.6094,0.8542,0.5677,9.7529,1590683633,N
0,1932870,0.6963,0.3948,9.8919,-1.4700,-1.6100,-2.5200,1002.6130,0.8249,0.5239,9.7578,1590683633,N
0,1931503,0.6580,0.5049,9.8632,-1.6800,-4.1300,-3.9900,1002.6168,0.8128,0.5197,9.7591,1590683633,N
0,1930555,0.7513,0.3350,9.6909,1.6800,3.4300,0.1400,1002.6211,0.7834,0.4864,9.7632,1590683633,N
0,1930351,1.0026,0.3206,9.7890,3.3600,-5.5300,0.4900,1002.6247,0.9001,0.4988,9.7525,1590683633,N
0,2105703,0.8782,0.2967,9.9374,-1.1900,-3.2900,1.6800,1002.6273,0.9159,0.4517,9.7533,1590683633,N
0,2108074,0.6700,0.5934,9.8728,5.7400,4.5500,1.6800,1002.6295,0.8685,0.5209,9.7542,1590683633,N
0,2119353,1.0935,0.6532,9.7603,3.5000,5.1800,2.4500,1002.6323,0.8961,0.5635,9.7494,1590683634,N
0,2119031,0.5958,0.3637,9.8656,-4.4100,5.9500,3.5000,1002.6348,0.7486,0.4665,9.7669,1590683634,N
0,2118556,0.7466,0.5599,9.8680,1.1200,2.3800,0.3500,1002.6375,0.7326,0.4865,9.7671,1590683634,N
0,2118317,0.8590,0.4307,9.8608,-1.6800,-1.2600,-0.6300,1002.6397,0.7546,0.4637,9.7666,1590683634,N
0,2118312,0.9069,0.4355,9.9350,-2.0300,-0.9100,-0.9800,1002.6417,0.7728,0.4416,9.7662,1590683634,N
0,2118010,0.8710,0.4810,9.8249,-2.3100,-0.9800,-1.0500,1002.6424,0.7807,0.4310,9.7660,1590683634,N
0,2116503,0.9571,0.5288,9.8441,-0.9100,-0.4200,-1.9600,1002.6440,0.8088,0.4435,9.7632,1590683634,N
0,2115424,0.9930,0.4905,9.8824,-0.1400,0.7000,-0.8400,1002.6448,0.8334,0.4494,9.7608,1590683634,N
0,2115215,1.0481,0.3757,9.6861,-3.7100,-2.1700,0.6300,1002.6447,0.8611,0.4076,9.7603,1590683634,N
0,2114875,1.0528,0.2776,9.7962,1.3300,2.9400,2.8000,1002.6454,0.8807,0.3864,9.7594,1590683634,N
0,2114809,0.6820,0.3541,9.9039,5.4600,-1.5400,1.6800,1002.6466,0.9069,0.4316,9.7551,1590683635,N
0,2114810,0.8566,0.6676,9.8704,-0.6300,0.0700,0.1400,1002.6476,0.8893,0.4699,9.7549,1590683635,N
0,2115168,1.2538,0.6724,9.6215,2.8000,2.3800,8.2600,1002.6483,0.9777,0.5265,9.7436,1590683635,N
0,2115103,0.5168,0.3182,9.8824,14.2100,0.8400,3.7800,1002.6492,0.9970,0.6109,9.7367,1590683635,N
0,2117513,1.2969,0.2106,10.0666,-6.4400,-24.3600,4.2000,1002.6506,1.2203,0.5228,9.7164,1590683635,N
0,2130948,1.2754,0.2919,9.5163,-23.3100,-35.4900,14.2100,1002.6516,1.2985,0.3165,9.7152,1590683635,N
0,2226165,1.9693,0.1125,9.4445,-17.3600,-30.8000,5.7400,1002.6517,4.4254,0.6128,8.7299,1590683635,N
0,2300974,3.0580,-0.4977,9.3296,-12.0400,-27.9300,-5.1100,1002.6516,6.0058,0.4929,7.7368,1590683635,N
0,2392092,3.0604,-0.4953,9.3559,-6.0900,-17.2200,-12.0400,1002.6514,6.8070,0.3508,7.0507,1590683635,N
0,2300808,3.3188,-0.8207,9.2913,1.0500,2.5200,-14.9100,1002.6514,7.2037,0.1609,6.6522,1590683635,N
0,2258071,2.7135,-0.6820,9.4086,-8.4700,5.3200,2.2400,1002.6521,6.8295,-0.1639,7.0357,1590683636,N
0,2277326,2.9145,-0.4499,9.5258,10.5700,31.4300,-8.1900,1002.6532,6.0167,-0.1951,7.7415,1590683636,N
0,2249125,2.4550,-0.3446,9.4899,5.7400,5.8100,-2.2400,1002.6541,4.6545,-0.2280,8.6287,1590683636,N
0,2226405,2.7852,-0.5384,9.5498,13.0200,-0.2800,-3.0800,1002.6545,3.0177,-0.1958,9.3287,1590683636,N
0,2255916,2.5890,-0.0335,9.6742,9.5200,-1.0500,-4.1300,1002.6541,2.2385,-0.0782,9.5474,1590683636,N
0,2184977,2.3856,-0.0598,9.6311,5.8800,-3.4300,-3.0100,1002.6532,5.0130,-0.0763,8.4282,1590683636,N
0,2181067,2.8164,-0.0718,9.7555,4.2000,-0.1400,1.2600,1002.6517,5.7657,-0.0735,7.9323,1590683636,N
0,2159186,2.6608,-0.0191,9.4349,4.0600,-0.1400,-2.3800,1002.6505,6.5365,-0.0449,7.3105,1590683636,N
0,2157055,2.6871,-0.0574,9.5474,0.0700,3.5700,-0.7700,1002.6492,6.2305,-0.0461,7.5729,1590683637,N
0,2158532,2.5412,-0.0837,9.7149,-0.7700,-0.7000,0.4900,1002.6484,5.3928,-0.0587,8.1905,1590683637,N
0,2155791,2.5412,-0.0072,9.6168,-1.4700,1.1900,4.7600,1002.6476,1.7194,-0.0248,9.6547,1590683637,N
0,2149348,2.4646,0.0479,9.4708,1.4000,1.8200,2.1700,1002.6467,5.4937,-0.0470,8.1232,1590683637,N
0,2159018,2.6034,-0.0287,9.5330,-3.0100,-3.0100,0.3500,1002.6467,2.1253,-0.0332,9.5735,1590683637,N
0,2156040,2.7446,-0.1412,9.6670,-2.1000,0.3500,-1.0500,1002.6474,2.7149,-0.0706,9.4231,1590683637,N
0,2164048,2.4837,-0.0742,9.5856,2.8700,1.4700,-0.5600,1002.6478,2.1905,-0.0457,9.5588,1590683637,N
0,2157188,2.5986,-0.2752,9.5617,5.6700,1.4700,1.8200,1002.6477,1.7588,-0.0428,9.6475,1590683637,N
0,2156052,2.7517,-0.0215,9.6191,10.8500,2.2400,-1.8200,1002.6481,6.5143,-0.0591,7.3301,1590683637,N
0,2163734,2.4215,0.1938,9.6120,3.7800,-0.9100,4.7600,1002.6483,6.9048,0.0100,6.9638,1590683637,N
0,2164133,2.4766,0.0742,9.5665,6.9300,0.4900,-2.3800,1002.6483,6.3446,0.0877,7.4772,1590683637,N
0,2160479,2.6201,0.2560,9.4899,5.6700,0.7700,5.3200,1002.6473,5.5627,0.1656,8.0746,1590683637,N
0,2165037,2.4957,0.2536,9.5426,9.2400,-3.0800,4.5500,1002.6459,5.1360,0.2468,8.3505,1590683638,N
0,2166013,2.8116,0.4499,9.5402,2.1000,-3.7100,6.5100,1002.6454,4.5280,0.3038,8.6934,1590683638,N
0,2184543,2.6034,0.6508,9.6335,0.1400,1.0500,1.0500,1002.6461,3.6142,0.3854,9.1082,1590683638,N
0,2183597,2.8068,0.3374,9.3799,-0.9100,7.9800,3.7800,1002.6464,3.3945,0.3622,9.1933,1590683638,N
0,2179942,2.4766,0.3637,9.6096,5.2500,6.8600,3.7100,1002.6465,3.3370,0.3971,9.2129,1590683638,N
0,2178103,2.7565,0.2345,9.6670,-3.2900,-11.0600,0.7000,1002.6476,3.2138,0.3412,9.2588,1590683638,N
0,2174830,2.8427,0.5336,9.7436,-1.6100,-1.6800,-5.8800,1002.6482,2.9310,0.3722,9.3510,1590683638,N
0,2170779,2.7254,0.2345,9.4540,9.4500,-8.5400,-6.7900,1002.6487,3.1907,0.4352,9.2629,1590683638,N
0,2170555,2.6895,0.3948,9.6598,0.2100,-5.8800,-12.7400,1002.6486,2.9850,0.4502,9.3304,1590683638,N
0,2175691,3.3260,0.3757,9.6000,-10.5000,-9.1700,3.9900,1002.6480,2.8363,0.3444,9.3812,1590683638,N
0,2176565,2.8092,0.1699,9.4612,1.5400,16.8000,6.3000,1002.6480,2.7900,0.3046,9.3965,1590683639,N
0,2182234,2.4909,0.0024,9.4062,1.3300,3.5000,6.0200,1002.6478,2.8864,0.2443,9.3691,1590683639,N
0,2182955,3.0508,0.3015,9.5689,-3.4300,-7.0000,11.7600,1002.6477,3.0031,0.2106,9.3331,1590683639,N
0,2186674,2.7326,-0.0191,9.6311,-1.1900,5.5300,4.9700,1002.6476,2.9976,0.1461,9.3361,1590683639,N
0,2189422,2.8762,0.0598,9.4062,3.8500,1.4000,-0.0700,1002.6473,3.3287,0.1597,9.2230,1590683639,N
0,2189756,2.5842,0.0311,9.5856,-0.5600,0.3500,3.0800,1002.6467,3.3702,0.1245,9.2085,1590683639,N
0,2190781,3.0078,-0.0144,9.3727,4.2000,-0.1400,1.5400,1002.6466,4.1019,0.1247,8.9067,1590683639,N
0,2190874,2.5029,-0.2704,9.4636,1.6800,-6.5800,3.1500,1002.6462,7.0896,0.0055,6.7755,1590683639,N
0,2188672,3.2614,0.0072,9.3966,-0.3500,-8.3300,5.4600,1002.6461,7.1720,-0.0232,6.6882,1590683639,N
0,2202200,3.1298,0.6676,9.3296,-2.6600,-11.2000,-2.8000,1002.6464,3.6146,0.1418,9.1151,1590683639,N
0,2214852,3.3093,-0.0072,9.1525,-8.6800,-6.0900,1.9600,1002.6465,2.4442,0.0380,9.4971,1590683640,N
0,2244674,3.7472,0.2369,9.2507,-0.9100,-0.2100,-1.5400,1002.6465,2.7518,0.0718,9.4124,1590683640,N
0,2251645,3.4959,0.2106,9.3129,3.0100,18.5500,3.9200,1002.6474,3.2611,0.1150,9.2478,1590683640,N
0,2263934,3.0126,0.2847,9.4086,0.7000,14.4200,5.8100,1002.6477,3.3190,0.1430,9.2268,1590683640,N
0,2269874,2.9264,0.1484,9.5234,-1.6100,-6.5100,3.6400,1002.6478,3.2636,0.1259,9.2468,1590683640,N
0,2269357,2.7637,0.0502,9.4325,0.3500,1.3300,0.9100,1002.6479,3.2687,0.1118,9.2452,1590683640,N
0,2270438,3.0006,-0.0957,9.3512,-3.8500,12.3200,3.6400,1002.6477,2.6553,0.0327,9.4403,1590683640,N
0,2271566,2.7924,-0.2201,9.2961,-10.2200,9.1700,3.2200,1002.6474,4.8866,-0.0937,8.5019,1590683640,N
0,2270601,2.5938,-0.5312,9.3823,-7.8400,5.1100,3.2200,1002.6473,3.5895,-0.2561,9.1225,1590683640,N
0,2269550,2.7039,-0.2082,9.8010,4.8300,5.5300,-6.3000,1002.6474,3.2280,-0.1982,9.2580,1590683640,N
0,2268160,2.4311,-0.2632,9.5713,-2.0300,6.4400,0.4900,1002.6475,3.0185,-0.2277,9.3278,1590683641,N
0,2264650,2.3545,-0.5168,9.8154,-1.6100,6.1600,0.0700,1002.6471,2.7268,-0.2955,9.4153,1590683641,N
0,2266467,2.2708,-0.5480,9.6311,-1.5400,6.2300,-2.4500,1002.6469,2.5786,-0.3525,9.4550,1590683641,N
0,2267742,2.0506,-0.3470,9.5904,-11.5500,3.4300,2.9400,1002.6466,2.7269,-0.4501,9.4091,1590683641,N
0,2268006,2.1344,-0.3206,9.6814,1.1200,3.7800,0.9800,1002.6461,2.5234,-0.4142,9.4674,1590683641,N
0,2268630,2.0937,0.0909,9.3535,16.8000,-1.9600,-5.8800,1002.6450,1.9422,-0.1632,9.6110,1590683641,N
0,2271823,2.1105,-0.3517,9.7771,-0.8400,-2.7300,1.0500,1002.6432,2.0359,-0.2094,9.5907,1590683641,N
0,2270065,2.2014,-0.2680,9.6838,-1.2600,1.0500,1.4000,1002.6412,2.0934,-0.2324,9.5778,1590683641,N
0,2268283,2.5412,-0.0455,11.0596,4.2000,-12.4600,-1.1900,1002.6393,2.0350,-0.1738,9.5916,1590683641,N
0,2267648,2.2301,-0.0646,9.6191,9.5900,-1.0500,-2.1700,1002.6381,4.4024,-0.1821,8.7610,1590683641,N
0,2270286,2.1153,-0.4235,9.7364,-0.3500,0.9100,-2.1700,1002.6371,1.7981,-0.1365,9.6394,1590683642,N
0,2267106,2.0698,-0.3278,9.6933,-1.9600,4.7600,0.8400,1002.6360,1.9079,-0.1907,9.6174,1590683642,N
0,2267372,1.7492,-0.4140,9.6790,1.0500,2.1700,-0.7000,1002.6353,1.8425,-0.2260,9.6294,1590683642,N
0,2270032,1.8592,-0.2991,9.7603,-0.2800,2.1700,0.1400,1002.6338,1.8327,-0.2414,9.6308,1590683642,N
0,2268445,1.4668,-0.7490,9.2363,-12.7400,-3.9200,7.1400,1002.6322,2.0441,-0.4767,9.5794,1590683642,N
0,2268963,1.9190,-0.3541,9.7484,-3.1500,-0.4200,1.0500,1002.6310,2.0780,-0.4799,9.5719,1590683642,N
0,2265863,1.8568,-0.3781,9.6311,0.4900,2.2400,-0.1400,1002.6302,2.0063,-0.4531,9.5885,1590683642,N
0,2265851,1.8018,-0.4810,9.7244,-0.8400,1.6100,0.9800,1002.6298,1.9538,-0.4648,9.5988,1590683642,N
0,2265403,1.7204,-0.6150,9.7484,-0.3500,0.7700,-0.4900,1002.6299,1.8934,-0.4959,9.6094,1590683642,N
0,2265133,1.8520,-0.5982,9.6718,-0.2100,2.5900,0.6300,1002.6298,1.8581,-0.5149,9.6152,1590683642,N
0,2265941,1.5553,-0.5456,9.7292,-1.3300,3.0800,1.5400,1002.6296,1.7766,-0.5307,9.6298,1590683643,N
0,2266127,1.6606,-0.5743,9.7077,5.8100,-0.8400,-0.9100,1002.6289,1.6736,-0.4877,9.6505,1590683643,N
0,2266692,1.7037,-0.5575,9.6861,2.8000,-1.4000,0.4200,1002.6287,1.6496,-0.4785,9.6551,1590683643,N
0,2268071,1.8305,-0.2489,9.5426,-2.7300,-0.0700,-0.9100,1002.6290,1.7281,-0.4571,9.6424,1590683643,N
0,2267719,1.9190,-0.2297,9.7962,11.5500,-6.7200,-3.0100,1002.6296,1.6076,-0.3130,9.6689,1590683643,N
0,2270890,1.8784,-0.1172,9.5737,6.0200,6.6500,-1.4000,1002.6299,1.4360,-0.2129,9.6986,1590683643,N
0,2267974,1.7850,-0.0766,9.5234,4.2000,-4.6900,-1.2600,1002.6303,1.3887,-0.1503,9.7067,1590683643,N
0,2261753,2.4144,0.1268,9.4995,18.6900,-32.3400,-8.2600,1002.6313,5.7401,-0.2186,7.9482,1590683643,N
0,2252860,1.5912,-0.1101,9.2937,-13.2300,-6.0200,7.7700,1002.6320,1.6408,-0.1042,9.6679,1590683643,N
0,2247730,2.7996,0.4164,9.3894,0.2800,-27.0200,-3.5700,1002.6329,5.8909,-0.1315,7.8390,1590683644,N
0,2236892,1.7492,0.9141,9.4756,20.5800,33.1100,-14.4900,1002.6328,3.4582,0.3695,9.1692,1590683644,N
0,2243814,2.8666,0.3900,9.7699,-3.1500,45.7100,9.0300,1002.6328,2.9347,0.3225,9.3517,1590683644,N
0,2168880,0.3278,0.1938,10.0810,6.8600,20.2300,4.4100,1002.6313,1.7486,0.3818,9.6419,1590683644,N
0,2140198,0.6269,0.0335,9.7412,10.2900,-10.9200,-0.3500,1002.6304,2.0200,0.4048,9.5878,1590683644,N
0,2145600,1.0169,0.0287,9.6957,11.1300,-12.1100,-8.7500,1002.6292,2.2939,0.4349,9.5247,1590683644,N
0,2133313,1.6104,0.0957,9.8728,-3.6400,-22.0500,-8.2600,1002.6273,2.2204,0.3557,9.5453,1590683644,N
0,2111891,1.5314,0.3852,9.6455,-1.6100,-19.3900,-6.2300,1002.6252,2.0956,0.3679,9.5731,1590683644,N
0,2112610,2.1990,0.2991,9.5856,-2.8000,-19.1100,-3.7100,1002.6241,2.1881,0.3465,9.5531,1590683644,N
0,2175784,2.4120,0.7250,9.4564,11.2700,-20.0200,-1.3300,1002.6235,2.6611,0.5338,9.4236,1590683644,N
0,2207918,2.4263,0.2967,9.2818,3.5000,-10.2900,14.4200,1002.6223,2.9287,0.5035,9.3456,1590683644,N
0,2220714,2.9719,0.8207,9.3942,3.0800,-18.7600,5.6000,1002.6209,3.1932,0.5924,9.2533,1590683645,N
0,2259950,3.0748,0.5408,9.2985,3.5000,-17.4300,-6.0200,1002.6201,3.3407,0.6318,9.1984,1590683645,N
0,2535414,3.6347,0.4762,9.4038,7.2100,13.0900,-0.8400,1002.6194,3.4132,0.6494,9.1705,1590683645,N
0,2297014,3.2901,0.3039,9.0257,4.9000,22.3300,6.6500,1002.6191,3.4192,0.5973,9.1719,1590683645,N
0,2194145,1.7659,1.9286,9.1597,27.6500,71.6100,-14.6300,1002.6196,2.5102,1.0511,9.4215,1590683645,N
0,2183323,0.6508,1.6750,9.7388,21.9800,22.7500,9.8000,1002.6201,1.9167,1.3158,9.5271,1590683645,N
0,2227009,2.4144,2.5244,10.3729,11.4800,34.7900,20.9300,1002.6206,1.7700,1.4119,9.5417,1590683645,N
0,2207366,-3.6132,2.1846,9.3990,14.0000,90.4400,23.3800,1002.6222,0.0545,1.1347,9.7406,1590683645,N
0,2241771,-1.6391,1.3711,9.3200,-35.2800,-45.0100,10.9900,1002.6235,-0.0949,0.7347,9.7786,1590683645,N
0,2199687,2.3498,3.3882,10.3418,-56.4200,19.6000,-95.7600,1002.6241,-0.3133,0.1865,9.7999,1590683645,N
0,2190197,0.0239,1.9669,9.6885,4.6200,2.8000,-2.8700,1002.6244,-0.2366,0.3307,9.7982,1590683646,N
0,2189414,0.1962,0.8949,9.8273,-12.3200,-1.8200,-2.5900,1002.6245,-0.1622,0.2744,9.8015,1590683646,N
0,2189143,0.2967,1.3184,9.7244,-0.6300,-0.1400,-1.6100,1002.6249,-0.0679,0.4158,9.7976,1590683646,N
0,2190253,0.2536,1.2467,9.4684,3.7100,-0.4200,1.4000,1002.6254,0.0100,0.5772,9.7896,1590683646,N
0,2191581,0.4618,1.4524,9.4277,10.0100,-4.3400,1.6100,1002.6263,0.1592,0.9097,9.7631,1590683646,N
0,2191988,0.6556,1.7707,9.1502,8.6800,-10.7800,5.1800,1002.6273,0.3797,1.3300,9.7086,1590683646,N
0,2190427,0.6700,0.9117,9.6646,-16.3100,-28.5600,3.9900,1002.6274,0.6759,1.4049,9.6819,1590683646,N
0,2190253,1.4046,0.8925,8.5998,6.0900,-32.5500,6.1600,1002.6277,1.1049,1.6965,9.5954,1590683646,N
0,2193339,2.7876,1.9214,7.8174,73.3600,-59.0100,35.5600,1002.6275,2.1101,2.7805,9.1644,1590683646,N
0,2197521,4.3837,2.2493,7.2048,28.5600,-75.0400,50.2600,1002.6268,3.2581,3.2026,8.6775,1590683646,N
0,2195617,6.6377,2.5220,6.3529,79.0300,-126.4200,77.8400,1002.6259,5.3123,3.6771,7.3776,1590683647,N
0,2189988,9.0640,3.5127,5.5322,20.5100,-236.0400,22.8200,1002.6249,7.3112,3.7109,5.3802,1590683647,N
0,2172991,10.1192,2.6154,4.8048,42.5600,-80.5700,46.9000,1002.6244,8.1977,3.3166,4.2389,1590683647,N
0,2220288,9.9829,3.0341,3.8859,53.9700,-28.3500,31.5000,1002.6243,8.6077,3.1110,3.5213,1590683647,N
0,2223221,9.8321,3.2327,3.6156,43.8200,-1.4700,22.6800,1002.6253,8.7601,3.0194,3.2117,1590683647,N
0,2224898,9.8393,2.4766,3.0269,21.2100,24.2200,5.3200,1002.6265,8.7671,2.9627,3.2451,1590683647,N
0,2224350,9.9996,2.0530,2.3593,26.6000,45.4300,-10.2200,1002.6273,8.6871,3.0575,3.3700,1590683647,N
0,2221980,9.4564,2.0483,1.9071,15.2600,43.3300,-16.3800,1002.6288,8.6142,3.1911,3.4326,1590683647,N
0,2219465,8.1835,2.0626,2.0650,-12.4600,14.4200,-8.3300,1002.6305,8.5952,3.1699,3.4992,1590683647,N
0,2217851,9.7149,1.3759,1.8281,-35.4200,-14.4200,13.0200,1002.6328,8.9292,2.5624,3.1423,1590683647,N
0,2215159,9.3153,1.2682,2.5388,-9.1700,-18.0600,1.5400,1002.6349,9.0974,2.2064,2.9224,1590683648,N
0,2212946,9.4732,0.7513,3.0389,-27.5800,-22.7500,1.1200,1002.6377,9.2118,1.7869,2.8496,1590683648,N
0,2210143,9.5761,0.3900,3.5103,-8.5400,-15.9600,9.2400,1002.6404,9.2963,1.3926,2.7946,1590683648,N
0,2208860,9.1262,0.4522,3.7639,-0.1400,-0.9800,12.5300,1002.6425,9.3199,1.1131,2.8408,1590683648,N
0,2207959,9.3942,0.5360,3.1777,38.0100,31.0100,8.4700,1002.6447,9.2969,1.0379,2.9429,1590683648,N
0,2207119,9.0138,1.2419,2.9671,48.9300,41.3000,-12.1100,1002.6461,9.1403,1.3548,3.2848,1590683648,N
0,2206215,9.5689,0.9667,2.7326,52.2200,35.6300,-19.9500,1002.6476,9.0281,1.6134,3.4730,1590683648,N
0,2205053,9.1525,0.9284,2.9169,58.3100,24.5000,-13.4400,1002.6488,8.9853,1.7651,3.5098,1590683648,N
0,2204233,8.4849,1.1533,2.8834,63.0000,5.8800,25.9000,1002.6498,9.1355,1.6095,3.1817,1590683648,N
0,2202013,9.3894,1.7803,2.5244,81.6900,-9.3800,65.4500,1002.6511,9.3890,1.2624,2.5346,1590683648,N
0,2201001,11.0979,3.2830,2.0363,88.8300,-4.6200,69.4400,1002.6520,9.5220,1.0442,2.1003,1590683649,N
0,2202304,9.6239,4.2784,1.6798,110.1800,17.4300,32.3400,1002.6526,9.3898,1.9112,2.0855,1590683649,N
0,2199651,8.1643,4.2138,2.2134,71.1900,11.9000,12.6700,1002.6529,9.1640,2.7755,2.1185,1590683649,N
0,2196642,9.1956,1.3854,2.0315,133.5600,26.7400,37.8000,1002.6527,9.1164,2.9552,2.0804,1590683649,N
0,2201072,10.2963,2.7278,2.9958,88.4100,17.4300,42.7000,1002.6526,9.0404,3.1951,2.0572,1590683649,N
0,2201215,8.4084,1.7300,2.8642,80.6400,9.3800,64.3300,1002.6527,9.1917,2.6944,2.1033,1590683649,N
0,2199202,9.4756,0.1675,3.3404,85.1200,14.6300,56.9100,1002.6523,9.3720,1.8850,2.1869,1590683649,N
0,2191463,9.5091,2.9097,4.0630,127.3300,28.6300,12.1100,1002.6524,9.0968,2.7690,2.3980,1590683649,N
0,2180198,8.3438,3.3571,3.7184,148.6100,43.5400,-17.5700,1002.6523,8.5393,4.1198,2.5057,1590683649,N
0,2174198,8.2840,3.4026,5.3839,110.8800,33.9500,-34.9300,1002.6512,8.0303,4.9245,2.7265,1590683649,N
0,2174723,7.5398,6.1663,5.2714,106.1900,36.2600,-59.2200,1002.6503,7.1582,6.2195,2.4997,1590683650,N
0,2177963,6.5037,7.3268,3.2758,101.5000,33.6000,-95.4800,1002.6485,5.9117,7.5806,1.9384,1590683650,N
0,2180567,6.9535,9.5306,1.2323,115.4300,2.3100,-173.8800,1002.6465,3.6571,9.0933,0.3296,1590683650,N
0,2179050,8.4658,12.8614,-4.0008,130.0600,-119.2800,-268.0300,1002.6445,-1.0865,9.5260,-2.0603,1590683650,N
0,2185102,5.7787,5.3480,-3.7352,-108.2200,-322.6300,-185.2200,1002.6436,2.3643,9.3886,-1.5606,1590683650,N
0,2194861,4.8479,0.1125,2.3210,-68.8100,-319.4800,7.1400,1002.6431,1.1806,9.7216,-0.5170,1590683650,N
0,2144028,1.5075,11.8373,14.2229,50.4700,-27.8600,67.8300,1002.6429,1.7541,9.6289,-0.6152,1590683650,N
0,2160567,-0.2417,12.1460,2.8092,-157.5000,83.7200,-75.6700,1002.6435,-0.9880,9.6236,1.6066,1590683650,N
0,2158767,1.5434,5.2881,1.6319,14.5600,-3.0100,30.1700,1002.6422,-0.9513,9.6541,1.4368,1590683650,N
0,2163349,1.9047,7.6116,4.6493,-189.9800,-17.9900,129.5700,1002.6388,-1.4499,9.2546,2.9019,1590683650,N
0,2700401,-3.0485,2.7781,6.7573,190.8200,140.2100,348.3200,1002.6359,7.3230,6.1401,2.2006,1590683651,N
0,2365794,7.0612,20.0877,2.0387,76.1600,166.4600,171.4300,1002.6328,6.9917,6.3179,2.7147,1590683651,N
0,2221569,7.7456,10.1839,-1.3424,-255.2900,-159.6700,-31.2900,1002.6304,8.3636,4.5390,2.3703,1590683651,N
0,2154804,6.9942,0.7848,10.7222,-17.6400,47.6000,13.7200,1002.6282,8.1377,4.2833,3.4061,1590683651,N
0,2165472,6.3769,5.5394,6.8195,1.1200,50.4700,71.9600,1002.6266,8.0031,4.0414,3.9734,1590683651,N
0,2163383,9.2028,0.9141,9.6455,40.8800,113.4000,158.6200,1002.6244,8.1829,2.8834,4.5713,1590683651,N
0,2171854,9.4636,10.0259,4.8168,222.1100,199.7100,-4.7600,1002.6213,6.8474,4.9442,4.9838,1590683651,N
0,2192627,5.1135,6.8889,2.9121,-77.8400,124.1800,-83.1600,1002.6187,5.7119,5.6556,5.6176,1590683651,N
0,2197888,3.6275,5.6686,6.4630,-101.4300,16.6600,-54.2500,1002.6165,4.9245,5.4698,6.4807,1590683651,N
0,2174883,0.5288,1.6893,8.9396,-94.9200,10.1500,-37.1000,1002.6141,3.6638,4.6760,7.8027,1590683651,N
0,2175875,0.8830,2.2875,8.6572,-21.8400,-7.0000,21.9800,1002.6123,3.1772,4.1834,8.2810,1590683652,N
0,2187314,1.5362,1.9238,9.2100,-90.3000,-21.2100,7.8400,1002.6104,2.8376,3.1392,8.8467,1590683652,N
0,2211295,2.2540,-0.4905,7.4991,-187.3900,-64.6800,-7.4200,1002.6091,6.7576,3.0947,6.3975,1590683652,N
0,2240814,4.7665,-0.1053,7.9346,-176.4700,-163.4500,-121.8000,1002.6073,8.5952,3.6270,3.0228,1590683652,N
0,2257286,8.3175,-1.8497,7.0086,-73.2900,-66.2200,-212.3100,1002.6050,8.1994,5.2368,1.2315,1590683652,N
0,2251391,1.3783,-6.1615,9.1143,131.3200,155.4700,-60.1300,1002.6026,7.1349,5.0305,4.4674,1590683652,N
0,2260065,6.8602,5.4796,2.5436,420.2100,137.4100,-60.5500,1002.5999,3.2258,5.7099,7.2912,1590683652,N
0,2479008,3.8692,8.1021,5.6853,37.0300,94.5000,-24.9900,1002.5975,2.7211,6.1506,7.1369,1590683652,N
0,2766563,-3.8094,10.6241,8.6189,8.8200,91.2100,-168.2100,1002.5948,0.7202,6.8859,6.9452,1590683652,N
0,2652080,-29.0776,-29.7643,4.1539,-52.5700,-27.7200,-333.5500,1002.5928,-0.9196,3.6546,9.0537,1590683652,N
0,2311497,-5.9294,4.0654,6.5420,-39.4100,74.1300,-120.8200,1002.5917,-2.9089,3.8662,8.5300,1590683653,N
0,2299915,-4.4004,-1.7324,8.5256,-83.9300,-188.0200,-191.5900,1002.5920,-2.5211,1.6804,9.3269,1590683653,N
0,2294637,-1.8185,-1.0409,9.7244,-40.9500,-273.1400,-110.9500,1002.5917,-1.6451,0.6835,9.6435,1590683653,N
0,2286440,0.6963,-6.9488,7.5757,-102.8300,-149.4500,-75.1800,1002.5920,2.2101,-0.3257,9.5488,1590683653,N
0,2285272,2.6680,-3.4505,5.6877,-82.9500,-70.0000,41.1600,1002.5923,2.2404,-1.0991,9.4838,1590683653,N
0,2283004,3.0628,-1.6343,7.2742,109.5500,-106.4000,-2.8000,1002.5919,4.0647,0.5882,8.9052,1590683653,N
0,2284515,4.9125,-2.4431,6.0897,64.5400,-149.2400,-16.5200,1002.5917,5.4920,1.9065,7.8977,1590683653,N
0,2285238,7.8532,1.4572,4.8383,117.8800,-113.9600,37.2400,1002.5913,8.8277,3.9181,-1.6999,1590683653,N
0,2281239,11.0596,1.5840,8.1643,161.9800,-107.4500,50.2600,1002.5900,8.8263,3.3149,-2.6979,1590683653,N
0,2289241,7.9609,3.3643,7.0684,109.0600,-56.2800,11.0600,1002.5886,8.8707,3.1964,-2.6953,1590683653,N
0,2289216,6.4989,4.7976,8.2696,99.2600,6.0200,-33.3900,1002.5873,8.7735,4.1095,-1.5189,1590683654,N
0,2287058,7.5494,4.0463,7.5422,76.9300,75.8100,-78.4700,1002.5864,7.7149,6.0435,-0.3559,1590683654,N
0,2289051,5.9246,10.3298,2.3713,168.9100,71.8900,-87.0100,1002.5858,5.1647,8.3209,0.5086,1590683654,N
0,2288370,5.2259,7.7671,4.0223,93.5900,14.5600,-94.5700,1002.5858,5.6405,-7.9763,0.8573,1590683654,N
0,2287985,4.3669,6.6066,5.2762,56.3500,59.0800,-54.9500,1002.5865,7.9747,-4.9049,2.9183,1590683654,N
0,2236763,7.8126,6.1041,0.3135,290.0100,6.3000,11.2700,1002.5872,8.5355,-3.5537,3.2690,1590683654,N
0,2618523,4.5751,10.2078,-0.2249,73.1500,24.9200,4.9000,1002.5884,8.8513,-2.7262,3.2237,1590683654,N
0,2288125,7.5470,6.9679,1.1916,-69.5800,113.6800,7.4900,1002.5898,9.2115,0.7965,3.2686,1590683654,N
0,2265569,6.8746,9.2315,1.4261,-110.5300,164.8500,51.8000,1002.5918,8.6931,1.3586,4.3307,1590683654,N
0,2287523,5.3815,8.8008,3.1513,-28.7000,148.4700,95.2000,1002.5946,8.1609,2.1251,5.0054,1590683654,N
0,2348293,5.3408,10.0355,6.5803,-30.8000,117.5300,94.4300,1002.5971,7.5628,2.1613,5.8569,1590683655,N
0,2327674,9.2937,4.5272,3.2782,97.0900,137.0600,57.7500,1002.6007,7.0564,2.7951,6.2101,1590683655,N
0,2295827,5.2570,6.8698,1.7946,28.8400,66.9900,24.0800,1002.6034,7.1634,3.6729,5.6005,1590683655,N
0,2254206,7.0229,3.1346,0.0742,-73.4300,-68.5300,50.5400,1002.6046,7.9716,2.9151,4.9119,1590683655,N
0,2259146,9.7699,4.2808,2.2301,-259.0000,-182.5600,-57.7500,1002.6050,8.9244,1.7204,3.6831,1590683655,N
0,2242284,9.6144,5.5657,6.9751,-91.6300,-140.4900,-41.5100,1002.6054,9.2514,1.5511,2.8595,1590683655,N
0,2228961,9.7460,3.8405,11.8708,-53.7600,-108.5700,-90.0900,1002.6057,9.0970,2.1307,2.9792,1590683655,N
0,2226810,7.4824,2.8259,7.8245,-16.0300,-30.1700,-67.8300,1002.6060,8.7033,2.7133,3.6140,1590683655,N
0,2227818,5.3121,6.9464,5.4915,-87.3600,11.3400,-100.1000,1002.6051,7.4948,3.8588,5.0108,1590683655,N
0,2234122,4.0726,8.6166,5.5657,-77.0700,10.0100,-109.5500,1002.6034,6.4340,4.5579,5.8310,1590683655,N
0,2238004,2.5196,9.0473,4.4411,-113.8900,-17.4300,-141.0500,1002.6017,5.1812,5.4146,6.3252,1590683656,N
0,2237161,3.5031,3.5581,6.3721,-137.6200,-65.3100,-132.4400,1002.6000,4.8662,5.1270,6.7974,1590683656,N
0,2229785,5.7619,2.7900,7.6834,-64.0500,-39.9700,-42.1400,1002.5988,5.0950,4.5247,7.0525,1590683656,N
0,2222880,6.7956,1.6487,5.0584,54.2500,-31.2200,20.9300,1002.5990,5.6071,4.5961,6.6035,1590683656,N
0,2215810,7.9753,1.6582,3.4433,28.0000,-72.7300,61.8800,1002.5989,6.8135,4.1197,5.7250,1590683656,N
0,2215559,10.8969,3.0652,0.7394,-39.2000,-11.2000,26.3900,1002.5984,7.3477,3.8816,5.2072,1590683656,N
0,2216141,6.5420,2.5866,8.5232,-11.4800,16.4500,42.7700,1002.5989,7.2921,3.3855,5.6156,1590683656,N
0,2217025,8.3103,3.9625,5.4532,-15.2600,-44.3100,-13.3700,1002.5998,7.5034,3.4464,5.2907,1590683656,N
0,2214465,7.6044,3.4863,4.9675,-1.5400,-26.7400,23.5900,1002.6010,7.7752,3.3037,4.9802,1590683656,N
0,2210576,8.1117,3.1107,4.0965,-10.8500,-26.5300,17.4300,1002.6014,8.0740,3.1226,4.6076,1590683656,N
0,2206303,8.6907,2.5866,4.3645,-8.6800,-20.5800,26.6000,1002.6018,8.3502,2.7860,4.3223,1590683657,N
0,2204820,9.0329,1.9167,3.6419,-9.5900,-19.4600,22.4000,1002.6028,8.6323,2.4134,3.9787,1590683657,N
0,2204297,8.8271,1.9669,3.6897,-11.6200,-9.4500,18.3400,1002.6035,8.7803,2.1541,3.7997,1590683657,N
0,2204110,9.3081,0.7107,3.5151,3.5000,-2.3100,31.6400,1002.6044,9.0032,1.6302,3.5293,1590683657,N
0,2204660,9.2076,0.7322,3.4983,-0.8400,-7.2100,16.2400,1002.6049,9.1271,1.3115,3.3387,1590683657,N
0,2206312,9.3200,0.8997,3.7950,2.1700,-2.8700,9.8000,1002.6062,9.1731,1.1482,3.2721,1590683657,N
0,2206391,9.1286,0.4044,3.2183,-7.2100,-12.7400,2.1000,1002.6075,9.2274,0.9548,3.1803,1590683657,N
0,2205957,9.6215,0.5025,3.1825,3.4300,4.1300,-8.3300,1002.6094,9.1865,0.9375,3.3016,1590683657,N
0,2205468,9.0042,0.8495,3.6084,10.5000,-10.9900,21.7700,1002.6106,9.3349,0.7505,2.9099,1590683657,N
0,2205886,8.9827,0.5432,2.8140,-34.5800,-47.0400,-14.1400,1002.6116,9.3258,0.7342,2.9428,1590683657,N
0,2194014,10.0379,0.5527,1.8544,-6.3700,-0.0700,-5.6000,1002.6129,9.3637,0.7372,2.8193,1590683658,N
0,2191616,9.5785,0.4164,2.6154,-2.1000,2.3800,-5.6000,1002.6135,9.3305,0.7175,2.9320,1590683658,N
0,2191943,9.6790,0.6963,2.4479,-5.1100,5.5300,-5.8100,1002.6143,9.3097,0.7563,2.9878,1590683658,N
0,2192397,9.7866,0.7442,2.3928,-5.1100,9.1000,-3.4300,1002.6155,9.3048,0.7802,2.9971,1590683658,N
0,2192518,9.7340,0.9739,2.4479,-4.8300,23.8000,3.6400,1002.6166,9.2977,0.8016,3.0133,1590683658,N
0,2192878,9.9757,0.9332,3.4337,-16.1700,26.6700,-7.4200,1002.6183,9.1226,0.8689,3.4919,1590683658,N
0,2193820,10.2532,4.3334,0.6413,30.8700,18.5500,-54.8800,1002.6191,8.9266,1.7655,3.6564,1590683658,N
0,2194416,10.1719,6.8124,0.0837,30.5200,4.1300,-139.8600,1002.6190,8.3715,3.3469,3.8584,1590683658,N
0,2195901,7.7551,5.2642,4.8072,-62.6500,-22.4000,-143.2900,1002.6187,7.5651,4.3029,4.5195,1590683658,N
0,2205384,3.8836,2.9408,5.8074,83.6500,-31.1500,-99.6100,1002.6177,7.0132,5.2595,4.3957,1590683658,N
0,2211293,5.3910,8.3198,5.1446,283.5700,-1.2600,15.2600,1002.6168,6.4998,6.7300,2.9376,1590683659,N
0,2287024,1.3208,9.6503,-6.0921,160.5800,-2.4500,-47.2500,1002.6162,4.6069,8.6048,0.9505,1590683659,N
0,2228718,7.3412,0.7274,1.4405,-17.9200,42.2100,14.0000,1002.6156,5.9680,7.5713,1.7968,1590683659,N
85,2232250,6.6640,6.6185,-0.0287,28.9100,38.1500,27.3700,1002.6166,5.7881,7.7880,1.4196,1590683659,N
85,2228402,5.0752,6.9775,-4.7450,-16.7300,28.7700,64.8900,1002.6177,5.4334,8.1490,0.4919,1590683659,N
85,3200610,4.5105,7.6211,-4.5751,-264.2500,-98.8400,47.3900,1002.6185,3.0396,9.2553,1.1276,1590683659,N
85,2622465,6.9176,12.8734,-1.5027,41.0900,-62.5100,-26.5300,1002.6193,3.2607,9.2398,0.4054,1590683659,N
85,2372615,8.3653,5.2140,-0.0311,9.8700,-19.1100,4.9000,1002.6207,3.8943,8.9995,0.1150,1590683659,N
85,2363127,7.9513,6.0419,-1.7276,-14.9100,-35.0700,7.6300,1002.6221,4.6846,8.6074,-0.3715,1590683659,N
84,2348083,6.9464,6.3506,0.4618,-28.8400,-26.1800,9.5200,1002.6240,4.3561,8.7858,-0.0627,1590683659,N
85,2335813,7.7839,6.4917,-1.7779,-5.6700,-9.7300,13.6500,1002.6247,5.0629,8.3849,-0.4797,1590683660,N
85,2329038,7.6427,5.7045,-1.1533,-28.8400,-15.1200,20.2300,1002.6251,5.3571,8.1955,-0.5530,1590683660,N
85,2319294,7.7719,4.2640,-1.4620,12.5300,-7.3500,19.3200,1002.6254,6.4421,7.3218,-1.0300,1590683660,N
86,2315267,9.3081,4.8766,-1.6008,-22.6100,-16.5200,13.4400,1002.6254,6.7895,6.9805,-1.1600,1590683660,N
86,2306354,8.6836,5.3575,-2.3689,21.3500,-2.4500,-9.8700,1002.6257,7.3303,6.3290,-1.5430,1590683660,N
86,2300767,8.0734,5.7476,-1.9334,-7.9800,-3.7100,-1.5400,1002.6270,7.3792,6.2569,-1.6028,1590683660,N
86,2291707,7.6092,5.0776,-2.3880,-11.9700,-11.6200,-1.8900,1002.6288,7.4038,6.1739,-1.7992,1590683660,N
86,2286876,8.2720,5.7045,-1.1007,-3.8500,-1.8200,0.4900,1002.6299,7.4641,6.1425,-1.6515,1590683660,N
86,2282353,7.5589,5.5394,-2.4957,10.3600,2.5200,1.6800,1002.6304,7.6201,5.8872,-1.8565,1590683660,N
87,2277172,8.0160,5.1159,-1.5123,-1.0500,6.0900,5.7400,1002.6303,7.7926,5.6885,-1.7570,1590683660,N
87,2272897,8.2385,5.6566,-1.2658,9.1700,7.8400,6.3000,1002.6304,7.9575,5.4928,-1.6364,1590683661,N
87,2268454,7.5852,5.7236,-2.3402,-1.3300,4.6900,5.1100,1002.6294,7.9432,5.4818,-1.7395,1590683661,N
87,2261556,8.0614,5.2331,-1.4859,-11.0600,-0.9800,20.3700,1002.6282,8.0325,5.3789,-1.6481,1590683661,N
87,2253339,8.4323,4.2233,-1.7946,1.9600,5.8800,7.4900,1002.6268,8.2525,5.0317,-1.6579,1590683661,N
87,2248513,8.7649,4.7474,-1.6869,-8.4700,8.5400,6.4400,1002.6257,8.3629,4.8763,-1.5666,1590683661,N
87,2241630,8.4945,4.7019,-1.4692,1.8900,19.6000,-1.4000,1002.6250,8.5133,4.6568,-1.4172,1590683661,N
87,2235149,8.4826,4.6516,-0.8016,-16.1700,18.2700,-7.4200,1002.6243,8.5789,4.6162,-1.1238,1590683661,N
87,2229768,8.5663,5.5274,-0.5288,-20.7200,13.5100,-11.3400,1002.6243,8.5276,4.7666,-0.8549,1590683661,N
87,2219160,8.2911,4.8431,0.7370,-13.4400,16.5200,-16.1000,1002.6243,8.7168,4.4772,-0.3776,1590683661,N
87,2210187,8.1284,5.5609,-0.2512,-5.4600,3.2900,-7.4900,1002.6240,8.6467,4.6157,-0.3169,1590683661,N
87,2201958,7.7192,4.6828,1.2179,23.6600,10.7800,13.6500,1002.6234,4.6301,8.6432,-0.1679,1590683662,N
87,2202146,8.1547,6.0945,2.0483,35.0700,10.2900,22.7500,1002.6226,5.6690,8.0010,0.1276,1590683662,N
87,2199049,8.5615,5.9414,-2.9097,8.4700,-13.1600,17.9200,1002.6219,5.2978,8.2459,-0.3297,1590683662,N
87,2191449,9.3512,3.6945,2.3545,8.0500,-7.6300,-1.4000,1002.6215,7.5354,6.2701,0.2717,1590683662,N
87,2189727,8.3533,4.8838,-1.1581,8.0500,-7.4900,-6.0200,1002.6211,5.7049,7.9753,-0.1404,1590683662,N
88,2185357,9.0401,4.3310,0.4786,-13.7200,2.8000,5.4600,1002.6205,7.8305,5.9029,0.0989,1590683662,N
87,2179889,8.9468,4.5129,-0.7178,-5.0400,9.7300,3.3600,1002.6202,5.2721,8.2689,-0.0343,1590683662,N
87,2173628,8.5639,4.7139,-0.8830,12.4600,22.8900,-5.3900,1002.6194,5.3535,8.2135,-0.2198,1590683662,N
87,2168282,8.7721,4.5823,0.7992,6.8600,27.3000,-7.4200,1002.6198,5.8028,7.9049,0.0974,1590683662,N
87,2165501,8.5256,4.7665,0.5456,-3.9200,14.2100,-4.9700,1002.6203,6.6135,7.2339,0.3195,1590683662,N
87,2161955,8.5807,4.7617,0.6939,-13.7900,8.4700,-7.4900,1002.6207,7.4430,6.3623,0.5419,1590683663,N
87,2158661,8.4706,5.1063,0.7131,-21.4200,6.3000,-15.6100,1002.6201,7.8710,5.8064,0.7088,1590683663,N
87,2154046,8.8630,5.8505,0.1651,-40.3900,-4.1300,-24.9900,1002.6190,8.2476,5.2567,0.7173,1590683663,N
87,2148285,9.4014,5.1422,0.7561,-14.9100,-2.0300,-52.5700,1002.6172,8.1817,5.3518,0.7668,1590683663,N
87,2152833,6.6520,7.6475,-0.4881,12.1100,-29.4000,-49.7000,1002.6156,8.4419,4.9822,0.2857,1590683663,N
88,2151364,6.0323,5.3910,1.3950,-9.9400,-45.3600,-32.2700,1002.6140,2.3634,9.4988,0.5976,1590683663,N
87,2145159,6.7214,5.8241,5.0847,-157.1500,-23.8700,-18.6200,1002.6128,8.1004,5.3031,1.5592,1590683663,N
87,2144429,5.8241,7.0660,2.6058,-180.8800,-27.2300,-22.8900,1002.6116,7.8333,5.3585,2.4689,1590683663,N
87,2140545,6.6832,2.4622,4.0606,-110.1800,-22.8900,25.4100,1002.6098,8.0936,4.6192,3.0540,1590683663,N
88,2118436,8.5519,3.8907,6.8004,-56.7000,-9.1700,-6.0200,1002.6072,8.0039,4.3647,3.6135,1590683663,N
87,2114423,6.5755,4.5894,3.6969,-29.5400,-1.4700,-15.2600,1002.6048,7.8225,4.4650,3.8784,1590683664,N
88,2109919,6.8291,2.2947,5.4628,-40.3200,15.3300,-2.2400,1002.6021,7.6614,3.9920,4.6409,1590683664,N
88,2104635,4.9627,4.0822,10.2532,-1.4000,18.8300,-4.4800,1002.6000,7.2090,4.0387,5.2810,1590683664,N
87,2102820,3.2710,3.9625,5.6088,-86.5900,-8.5400,7.4200,1002.5972,6.8262,3.7070,5.9859,1590683664,N
88,2104802,8.1404,1.4620,6.7884,-38.9200,-31.0100,21.3500,1002.5945,7.0626,2.9423,6.1346,1590683664,N
87,2103069,8.7266,0.2106,4.7378,-61.6000,-79.9400,42.0700,1002.5917,7.5577,1.9247,5.9454,1590683664,N
88,2097398,8.9204,2.5914,3.5151,-10.7100,3.7800,1.4000,1002.5892,7.8908,2.0940,5.4333,1590683664,N
88,2091663,8.0877,0.9858,7.6834,-39.6200,-4.6200,-5.5300,1002.5861,7.5505,1.7862,5.9975,1590683664,N
88,2091312,8.0303,-0.3637,4.3765,-18.9000,-14.5600,2.4500,1002.5832,7.4172,1.2351,6.2952,1590683664,N
88,2089494,7.8197,1.7587,5.3934,69.2300,-10.4300,-0.2800,1002.5813,8.0857,1.6486,5.2984,1590683664,N
88,2093229,8.9611,-0.6197,5.1757,-18.3400,-31.6400,12.4600,1002.5797,8.1210,1.0585,5.3944,1590683665,N
88,2091015,7.7671,0.2441,4.4052,9.0300,9.4500,10.0100,1002.5789,8.2456,0.8763,5.2357,1590683665,N
88,2091346,8.6261,1.7228,4.2616,9.3100,-11.5500,3.5000,1002.5786,8.5634,1.0511,4.6619,1590683665,N
88,2091417,9.5306,1.3352,3.9553,9.0300,5.3900,-13.2300,1002.5793,8.5969,1.2186,4.5584,1590683665,N
88,2092674,9.4469,1.2371,5.5250,-29.3300,26.3200,-22.7500,1002.5794,8.0792,1.2777,5.4097,1590683665,N
88,2094892,8.3629,1.4836,4.4148,31.8500,62.5100,-42.9100,1002.5788,7.7615,1.7293,5.7393,1590683665,N
88,2094514,7.6331,-0.3637,9.1095,-27.3000,80.2900,-41.6500,1002.5779,6.5909,1.5790,7.0879,1590683665,N
88,2100445,7.6977,2.9049,9.3631,27.5800,43.3300,-59.1500,1002.5778,6.0597,2.0944,7.4205,1590683665,N
88,2105930,7.4680,3.6849,5.5155,23.5900,45.1500,-74.3400,1002.5774,5.8703,2.8821,7.3078,1590683665,N
88,2105795,2.4024,1.7228,5.7595,41.5800,22.1200,-38.0800,1002.5771,5.4324,3.3124,7.4624,1590683665,N
88,2104368,-0.3470,2.5675,9.1932,44.8000,-40.7400,5.6700,1002.5760,4.5834,3.9805,7.7018,1590683666,N
87,2102714,4.2544,2.0626,7.9466,64.6800,-2.8000,17.7800,1002.5749,4.8598,3.9654,7.5384,1590683666,N
88,2107567,-0.3709,2.1057,2.7063,1.8900,35.2800,24.5000,1002.5736,4.0372,4.0982,7.9420,1590683666,N
88,2135245,-0.9811,1.5051,4.9986,-6.4400,-44.3100,57.4000,1002.5723,3.8863,3.9986,8.0671,1590683666,N
88,2169700,6.0323,3.3093,2.8499,-5.0400,-161.4200,166.5300,1002.5704,6.4272,3.5436,6.5041,1590683666,N
88,2165474,12.1962,-5.0345,-3.8955,63.8400,101.2200,8.9600,1002.5693,6.6952,3.3857,6.3152,1590683666,N
88,2169062,7.7910,4.4578,4.7091,28.7700,-21.0700,15.4700,1002.5693,7.1253,3.6122,5.6879,1590683666,N
88,2164381,9.7699,2.3856,3.6419,6.7200,-37.8700,16.2400,1002.5688,7.8194,3.2325,4.9576,1590683666,N
88,2157188,8.9180,4.8766,3.2303,53.9700,-19.0400,26.0400,1002.5698,8.1494,3.4969,4.1868,1590683666,N
88,2149405,8.7458,2.9121,3.1298,24.5700,-7.4900,7.7700,1002.5705,8.3550,3.4051,3.8432,1590683666,N
88,2145941,8.9276,4.3813,1.9334,-12.7400,-16.3100,-0.1400,1002.5704,8.5092,3.5144,3.3783,1590683667,N
88,2147983,9.3990,3.5246,2.7230,-7.3500,-24.5000,10.1500,1002.5704,8.7265,3.2938,3.0280,1590683667,N
87,2147155,9.4756,2.9480,1.6917,-12.3200,-12.3900,12.3900,1002.5705,8.9349,3.0530,2.6489,1590683667,N
88,2145535,9.5952,2.1918,2.3856,-9.0300,5.9500,21.1400,1002.5707,9.0687,2.6830,2.5943,1590683667,N
88,2144267,9.2267,2.3952,2.7230,14.0700,13.5800,30.4500,1002.5715,9.1337,2.4553,2.5919,1590683667,N
87,2143873,9.4995,2.2756,2.5675,-7.9800,3.7100,6.3700,1002.5719,9.1640,2.3387,2.5928,1590683667,N
88,2144263,9.6335,1.5817,2.5531,-0.1400,11.2700,18.4800,1002.5716,9.2348,2.0435,2.5909,1590683667,N
87,2145742,9.5115,1.6319,2.8020,-3.4300,17.5000,15.0500,1002.5718,9.2438,1.8628,2.6932,1590683667,N
87,2146809,9.2626,1.0169,3.2518,-8.8200,15.3300,14.3500,1002.5728,9.2554,1.5775,2.8318,1590683667,N
87,2147495,9.2219,0.7226,3.3978,-4.3400,12.0400,20.0200,1002.5735,9.2971,1.2415,2.8623,1590683667,N
88,2147795,9.5856,0.6150,3.6754,-6.2300,13.4400,19.3900,1002.5753,9.3271,0.9497,2.8765,1590683668,N
87,2149099,9.4947,0.5791,4.1515,-12.7400,10.7100,17.8500,1002.5771,9.3410,0.7080,2.9008,1590683668,N
87,2151385,9.9470,-0.2776,4.1204,-8.9600,11.4100,21.9800,1002.5789,9.4470,0.3105,2.6131,1590683668,N
87,2157890,9.8536,2.9288,3.6108,75.5300,49.0000,-41.8600,1002.5791,8.9976,1.2539,3.6935,1590683668,N
87,2167896,8.5448,5.6207,4.0104,-57.4700,41.0900,-119.7700,1002.5793,7.8799,2.4811,5.2841,1590683668,N
87,2179715,5.9055,2.7661,6.5468,-160.8600,16.3800,-156.8700,1002.5789,6.2145,2.5630,7.1402,1590683668,N
87,2207849,7.6044,-4.4219,7.1450,-102.3400,-14.9100,-93.1000,1002.5780,9.3132,3.0271,0.5205,1590683668,N
87,2218843,9.8943,-1.3615,5.7284,46.1300,7.2100,31.8500,1002.5774,9.4922,2.3652,0.6893,1590683668,N
87,2222664,8.8893,3.0150,5.9701,-20.9300,-10.3600,-11.7600,1002.5763,5.9067,1.5126,7.6807,1590683668,N
87,2221084,8.3557,1.6726,5.9916,8.4700,-1.4000,-7.4200,1002.5749,6.2190,1.6774,7.3946,1590683668,N
87,2219004,6.3314,2.2732,6.3362,26.1800,20.0200,7.9800,1002.5729,6.3754,1.9460,7.1929,1590683669,N
87,2217289,7.1282,3.2686,8.0495,-15.4000,-16.1000,17.2900,1002.5709,6.4700,1.8823,7.1251,1590683669,N
87,2220566,6.9870,2.0411,6.6975,-27.2300,14.9800,2.7300,1002.5690,6.2830,1.7359,7.3267,1590683669,N
87,2220862,5.9677,1.9023,5.7452,-5.0400,25.5500,5.7400,1002.5679,6.1633,1.7186,7.4318,1590683669,N
87,2218919,6.0179,3.6443,6.8028,-25.5500,9.3100,-26.1800,1002.5670,5.9030,2.0531,7.5571,1590683669,N
87,2218155,6.6855,1.8185,7.8078,-24.4300,16.5200,-28.2100,1002.5657,5.5602,1.9223,7.8460,1590683669,N
87,2218843,6.7238,0.7920,7.7192,25.4100,10.9900,-12.8100,1002.5641,5.6840,1.8927,7.7640,1590683669,N
86,2218927,7.2359,1.7898,7.5733,28.7700,5.7400,0.9100,1002.5623,6.0135,2.0232,7.4777,1590683669,N
86,2216469,5.0489,2.1440,6.8698,7.4200,2.7300,0.2800,1002.5608,6.0011,2.1122,7.4629,1590683669,N
86,2214513,3.6969,5.1326,6.8530,76.3700,19.6700,6.0200,1002.5593,5.8227,3.1662,7.2278,1590683669,N
86,2214786,4.1922,3.9793,6.8004,112.9800,13.2300,-2.2400,1002.5581,5.7326,4.0583,6.8438,1590683670,N
86,2215170,3.2327,5.3049,4.3382,159.4600,14.4900,20.3700,1002.5566,5.7693,5.2025,5.9849,1590683670,N
86,2211457,7.2574,6.7980,4.4794,-120.3300,-62.7200,4.5500,1002.5559,6.2299,4.5967,6.0191,1590683670,N
86,2209566,8.7362,3.6514,4.7354,-85.4700,-32.1300,-71.5400,1002.5554,6.3589,4.3522,6.0657,1590683670,N
86,2207375,6.0586,-0.3182,5.9749,102.9000,27.7200,-8.8900,1002.5551,6.4512,4.4448,5.8988,1590683670,N
86,2200698,6.0538,1.3974,9.5761,-14.0700,4.4800,-13.0200,1002.5549,6.3111,4.0752,6.3034,1590683670,N
86,2208155,2.9719,4.2736,5.7260,-34.4400,-16.8000,13.2300,1002.5547,6.1305,3.9942,6.5295,1590683670,N
86,2210046,4.9723,5.4245,6.1424,-34.7900,-22.1900,4.9700,1002.5539,6.0359,4.0966,6.5541,1590683670,N
86,2209157,10.1623,-0.5480,9.8943,89.2500,-23.6600,10.7800,1002.5530,6.6062,4.0261,6.0265,1590683670,N
86,2208737,6.9320,0.1005,6.1567,12.8800,8.5400,18.9700,1002.5524,6.9341,3.1949,6.1548,1590683670,N
86,2205452,5.4174,6.1041,6.0754,-30.5200,-4.2700,-11.5500,1002.5519,6.5312,3.6369,6.3472,1590683671,N
87,2204125,7.2000,1.6056,7.8006,-11.2700,-14.7000,-1.1900,1002.5518,6.6426,3.1477,6.4914,1590683671,N
86,2202223,5.7308,3.5677,7.0014,0.9800,9.8700,-1.1900,1002.5523,6.4062,3.2543,6.6739,1590683671,N
87,2201256,5.3025,4.2281,6.9679,-10.9900,2.2400,4.8300,1002.5526,6.1759,3.3789,6.8273,1590683671,N
86,2198836,5.8385,2.9097,7.6475,-0.1400,17.7800,2.4500,1002.5512,5.9863,3.2546,7.0528,1590683671,N
87,2197529,5.4341,2.7589,6.8076,-15.6100,-2.9400,-5.0400,1002.5510,5.9026,3.1317,7.1779,1590683671,N
87,2198378,5.1613,5.2499,4.8574,45.8500,-38.5700,-35.6300,1002.5508,6.1433,3.9299,6.5564,1590683671,N
87,2201844,5.2594,4.7426,-0.5001,127.1200,-94.2200,-41.5800,1002.5504,6.9543,5.2611,4.4866,1590683671,N
86,2203246,8.1308,3.2160,6.6927,-29.5400,-122.5000,-36.0500,1002.5508,7.5015,4.8706,4.0218,1590683671,N
86,2227790,10.6887,-1.3831,9.4780,10.5700,10.3600,56.5600,1002.5512,7.9164,3.9070,4.2705,1590683671,N
87,2242681,6.6449,10.5954,-1.1773,145.1100,9.3100,16.1700,1002.5521,7.9172,4.8729,3.1214,1590683672,N
86,2430944,8.8343,0.5384,2.0076,42.5600,20.7200,56.5600,1002.5515,8.5431,3.7000,3.0817,1590683672,N
87,2351356,11.4616,6.2237,0.9093,-25.1300,-17.8500,-10.3600,1002.5513,8.6343,3.7399,2.7626,1590683672,N
87,2324824,8.9348,5.0441,3.6467,0.7700,13.6500,-32.4800,1002.5514,8.3485,4.1753,3.0066,1590683672,N
86,2339059,13.0481,8.2816,3.7519,-143.5700,55.0200,-30.7300,1002.5512,7.9417,4.1332,4.0020,1590683672,N
87,2373818,12.4714,5.9988,0.7848,-207.0600,172.6200,-92.5400,1002.5518,6.4919,4.1017,6.0993,1590683672,N
87,2444019,-1.4166,2.8020,-2.9623,-60.7600,119.1400,13.2300,1002.5521,5.4774,4.5034,6.7741,1590683672,N
87,2371413,-0.6652,-2.3856,3.5079,39.7600,-69.5800,42.5600,1002.5522,5.9832,3.7691,6.7945,1590683672,N
87,2348444,9.6431,0.4977,18.6305,-116.6900,-228.4100,125.0900,1002.5525,7.7064,2.1101,5.6858,1590683672,N
86,2345293,12.8997,-8.6166,-0.0311,33.7400,56.2100,31.5700,1002.5521,7.8913,1.2986,5.6755,1590683672,N
86,2317021,8.6716,2.4718,5.6183,-1.6100,-28.7700,1.1900,1002.5521,8.1255,1.4729,5.2893,1590683673,N
86,2308360,7.8604,1.4213,4.1587,16.8700,19.1100,13.1600,1002.5498,8.3023,1.4733,5.0071,1590683673,N
86,2301818,8.3701,1.6104,6.1543,-0.9800,6.3700,7.5600,1002.5476,8.2269,1.4317,5.1418,1590683673,N
86,2295885,9.1502,4.4435,5.6686,61.3200,14.3500,-4.9700,1002.5460,8.2610,1.9626,4.9065,1590683673,N
86,2295685,6.0443,4.3047,3.2423,68.7400,34.6500,-49.9100,1002.5452,7.8315,3.0160,5.0736,1590683673,N
86,2289007,8.6237,-0.5527,7.5541,25.2000,-35.2800,-4.8300,1002.5439,8.0896,2.7025,4.8399,1590683673,N
86,2282789,6.1759,2.5005,2.9886,57.3300,-14.2800,42.5600,1002.5432,8.4584,2.6332,4.2062,1590683673,N
87,2276597,9.1143,3.5318,3.9529,6.3700,-11.1300,39.2000,1002.5434,8.6785,2.4642,3.8447,1590683673,N
86,2259639,9.4110,3.2351,4.8359,6.3700,-0.4200,24.2900,1002.5437,8.7554,2.3262,3.7554,1590683673,N
87,2239906,8.7769,2.8475,4.0534,0.7000,-4.2700,20.0200,1002.5440,8.8135,2.2503,3.6644,1590683673,N
87,2223282,8.7362,2.5316,4.0463,0.4200,-7.0000,16.2400,1002.5449,8.8699,2.1545,3.5851,1590683674,N
87,2206154,8.9994,2.2253,3.9362,0.7700,-10.7800,13.1600,1002.5463,8.9472,2.0255,3.4664,1590683674,N
87,2197934,8.9683,1.9071,3.5174,-3.0100,-12.3900,7.4200,1002.5478,9.0254,1.9002,3.3318,1590683674,N
87,2183247,9.4780,2.0411,3.6969,3.7100,-2.5900,11.3400,1002.5484,9.0683,1.8158,3.2618,1590683674,N
87,2175984,9.1454,1.9190,3.5198,1.6800,-6.0200,18.4100,1002.5499,9.1429,1.6683,3.1296,1590683674,N
87,2175869,9.1358,1.3280,3.3332,-2.3800,-9.2400,21.1400,1002.5515,9.2519,1.3933,2.9379,1590683674,N
87,2173470,9.5186,0.9356,2.9862,-1.4000,-11.2000,18.4100,1002.5529,9.3686,1.1058,2.6788,1590683674,N
87,2174092,9.5234,0.5695,3.0173,4.5500,-7.3500,7.9100,1002.5538,9.4259,0.9144,2.5468,1590683674,N
87,2174640,9.8130,0.8279,3.1274,-1.0500,-17.2200,7.2800,1002.5549,9.4808,0.7929,2.3781,1590683674,N
86,2180148,9.9709,0.4977,2.4263,-9.0300,-31.8500,9.7300,1002.5562,9.5904,0.5761,1.9655,1590683674,N
87,2183635,10.1073,0.4499,1.9645,-12.8800,-36.8900,-0.4200,1002.5576,9.6564,0.4827,1.6406,1590683675,N
86,2186692,11.7057,0.4810,1.5840,-15.4700,-29.4700,-18.6900,1002.5588,9.6454,0.6000,1.6664,1590683675,N
87,2199298,13.4524,3.3858,0.0790,-107.8000,-78.6800,-70.4900,1002.5609,6.6228,3.3516,6.4091,1590683675,N
86,2211414,8.7242,7.3244,-2.3306,-62.1600,-6.8600,-113.9600,1002.5632,3.1044,5.5663,7.4531,1590683675,N
86,2212026,1.8975,4.5440,5.2642,-123.2700,57.4700,-156.7300,1002.5652,7.5278,3.3575,5.3131,1590683675,N
86,2208897,2.0937,-0.4714,7.2838,-64.1900,112.5600,-124.8100,1002.5668,8.7493,4.1994,-1.4093,1590683675,N
86,2211130,5.7882,5.9725,7.3579,-69.1600,101.7100,12.8800,1002.5685,8.8411,4.2034,0.5794,1590683675,N
86,2217907,9.5019,4.6277,3.6156,73.9900,3.6400,108.6400,1002.5695,6.0284,2.6938,7.2507,1590683675,N
86,2341688,17.3121,4.9316,-0.8997,80.4300,-197.7500,148.6100,1002.5683,8.7801,2.4582,3.6109,1590683675,N
86,2499867,9.0544,-0.7035,4.8694,-88.2000,50.6100,70.7000,1002.5664,8.6302,1.2006,4.4999,1590683675,N
86,2483293,7.4178,-0.0766,4.7067,-11.1300,-12.1100,23.5200,1002.5650,8.7751,0.8412,4.2966,1590683676,N
86,2469261,8.1715,1.5434,5.0034,-22.1200,24.5000,17.2900,1002.5647,8.6197,0.8096,4.6061,1590683676,N
86,2468310,11.0309,3.0532,4.3980,-99.2600,54.9500,0.3500,1002.5646,7.2776,0.6210,6.5437,1590683676,N
86,2469109,5.9366,0.1603,4.7904,-34.0200,6.7200,-7.9100,1002.5641,9.7846,0.6040,0.2579,1590683676,N
86,2464677,6.7190,1.7468,7.2981,-14.5600,-1.1200,5.1100,1002.5630,6.3686,0.5488,7.4370,1590683676,N
86,2460564,7.3053,0.5958,6.0084,28.2100,5.0400,2.2400,1002.5615,7.1150,0.7206,6.7102,1590683676,N
86,2456679,7.9848,1.3232,5.7643,-28.8400,-2.0300,-6.3000,1002.5609,6.8740,0.7326,6.9557,1590683676,N
86,2452971,6.6784,2.0363,5.3910,4.2700,-9.1000,-23.1000,1002.5601,7.0192,1.0680,6.7647,1590683676,N
86,2446201,5.0632,1.6726,-0.2536,5.6000,-82.4600,-49.2100,1002.5587,8.1621,1.8539,5.1101,1590683676,N
86,2418314,10.5452,11.8325,5.3934,26.9500,-70.0000,-71.8200,1002.5575,8.2155,2.9171,4.4907,1590683676,N
86,2425153,12.0503,-19.7599,5.6016,132.5800,43.9600,109.8300,1002.5559,9.0183,1.7861,3.4134,1590683677,N
86,2738126,10.5571,9.2985,5.8576,13.7900,-107.9400,94.5700,1002.5554,9.5433,1.1028,1.9697,1590683677,N
86,2526875,9.8943,13.7946,-0.3733,-89.8100,-9.2400,-36.6100,1002.5543,9.3158,1.8922,2.4097,1590683677,N
86,2603764,8.0112,5.2738,-1.7444,-488.1100,24.9900,2.5900,1002.5528,9.2101,1.5050,-3.0132,1590683677,N
86,2581076,6.8100,1.8927,1.6056,-94.4300,-80.6400,-95.6200,1002.5518,8.7910,2.2254,-3.7331,1590683677,N
86,2455568,4.0534,-4.5751,3.8285,-83.4400,-3.8500,-39.4100,1002.5514,9.3464,2.2017,-1.9917,1590683677,N
86,2463953,12.4714,-0.8518,5.8600,-7.4900,-89.3900,10.2900,1002.5503,9.3129,1.9170,-2.4011,1590683677,N
86,2449148,11.2726,-0.0431,5.1182,-35.5600,-6.8600,-23.4500,1002.5503,9.4005,1.8883,-2.0578,1590683677,N
86,2429890,11.6842,-0.0144,7.3173,-32.2700,53.1300,-34.6500,1002.5515,9.5635,1.8419,-1.1475,1590683677,N
86,2406382,7.1354,-1.8162,2.6991,-63.5600,94.2200,-14.6300,1002.5533,9.7008,1.2755,0.6615,1590683677,N
86,2400787,6.3888,0.0479,3.4265,-16.5900,46.3400,-3.2200,1002.5529,9.6696,0.9955,1.2954,1590683678,N
87,2395024,8.0518,-0.8303,3.6347,70.9800,19.0400,6.0200,1002.5527,9.6828,0.6797,1.3971,1590683678,N
87,2391439,6.1567,0.5647,4.3837,235.9000,63.6300,29.0500,1002.5519,7.6617,0.8360,6.0639,1590683678,N
87,2315935,3.9314,1.5458,6.3482,141.1900,-15.6100,48.2300,1002.5510,8.6419,1.1589,4.4884,1590683678,N
87,2284632,6.3506,1.6247,10.3537,-38.7100,9.7300,-25.8300,1002.5502,7.9746,1.3169,5.5535,1590683678,N
87,2259597,7.0588,9.9948,4.9388,148.8900,0.2800,-55.7900,1002.5496,7.7349,3.0128,5.2215,1590683678,N
87,2249410,7.2287,6.1974,4.6875,77.1400,35.6300,-6.5800,1002.5483,7.3920,3.9712,5.0753,1590683678,N
87,2248023,5.6830,8.7075,4.8383,-3.7800,16.5900,4.2700,1002.5468,7.0854,4.3617,5.1907,1590683678,N
88,2251856,6.7119,3.7807,5.6231,-99.1900,-36.2600,2.2400,1002.5460,7.1923,3.7712,5.4972,1590683678,N
88,2252631,6.0179,4.7402,6.1232,-97.7200,-17.5000,-8.8900,1002.5450,6.8632,3.5647,6.0299,1590683678,N
88,2252817,7.7910,4.0391,7.8628,-88.4800,-18.2000,-11.2000,1002.5437,6.6326,3.1198,6.5150,1590683679,N
88,2259722,7.1976,2.6321,7.1115,-31.2200,15.4000,-0.4200,1002.5428,6.4390,2.8150,6.8400,1590683679,N
87,2274749,6.4750,2.4191,6.3027,-18.9700,24.5700,3.0800,1002.5419,6.2793,2.6289,7.0590,1590683679,N
88,2269537,6.3458,0.8327,6.4008,-4.3400,3.9200,24.2900,1002.5406,6.4315,2.1445,7.0857,1590683679,N
88,2263425,7.1378,2.3043,6.6855,26.8100,-3.0100,50.9600,1002.5399,7.0003,2.0571,6.5524,1590683679,N
88,2258329,7.4824,3.6156,5.1206,84.3500,-5.6700,69.0900,1002.5381,7.8070,2.3052,5.4687,1590683679,N
88,2255337,8.3940,3.9840,4.5320,101.7100,-21.5600,81.4100,1002.5367,8.4085,2.3654,4.4579,1590683679,N
88,2254695,9.1837,3.3978,3.7950,129.2200,-30.1700,98.7000,1002.5358,8.9047,2.1487,3.5014,1590683679,N
88,2254292,9.0664,2.0841,3.3547,147.4900,-36.1900,114.7300,1002.5353,9.2980,1.5642,2.6964,1590683679,N
88,2245554,9.9541,2.9432,4.0606,162.7500,0.7000,119.2800,1002.5354,9.3959,1.3912,2.4397,1590683679,N
88,2229307,8.8487,1.5793,2.7494,176.5400,30.4500,98.1400,1002.5350,9.3762,1.5501,2.4198,1590683680,N
88,2217370,8.0806,1.2993,2.3593,128.5900,16.3100,75.7400,1002.5350,9.3968,1.5326,2.3500,1590683680,N
88,2211860,8.0830,0.3757,1.9645,71.3300,-27.3700,72.8700,1002.5349,9.5611,0.8635,2.0026,1590683680,N
88,2208733,9.2004,-0.0239,3.7639,73.2900,-31.9900,63.4200,1002.5354,9.6486,0.1242,1.7492,1590683680,N
88,2206018,9.4732,-0.2106,3.8261,113.8200,-2.1000,31.9200,1002.5352,9.6440,0.1538,1.7720,1590683680,N
88,2204138,9.5282,-1.1055,3.6754,109.6200,4.2000,26.9500,1002.5344,9.6406,0.0267,1.7970,1590683680,N
88,2200086,9.9374,-1.4237,3.7902,85.6800,0.4200,39.4800,1002.5344,9.6487,-0.4410,1.6968,1590683680,N
88,2191205,10.7222,-0.9930,2.2301,60.6200,-13.6500,39.5500,1002.5343,9.6681,-0.8910,1.3802,1590683680,N
88,2182953,8.5519,0.6987,1.8473,-40.8100,-17.5700,33.3900,1002.5348,9.6603,-1.4179,0.9157,1590683680,N
88,2183336,9.1190,-3.1202,1.2921,-95.7600,-10.0800,-1.8200,1002.5355,9.6004,-1.9818,-0.2727,1590683680,N
88,2191780,10.5500,-3.8285,4.2114,-3.7100,26.0400,-22.1900,1002.5356,9.6472,-1.7518,-0.1841,1590683681,N
88,2184348,10.8108,-0.8447,3.2088,28.9100,54.8100,-34.5800,1002.5352,9.7139,-1.1614,0.6791,1590683681,N
87,2166346,9.2052,-0.5192,4.1348,12.8100,19.7400,-38.2200,1002.5353,9.7142,-0.6439,1.1788,1590683681,N
88,2152157,9.9685,-0.1436,3.3476,5.1800,-8.9600,-28.6300,1002.5359,9.7117,-0.3160,1.3244,1590683681,N
87,2139047,9.5426,-0.0287,3.9290,1.8200,-8.4700,-17.1500,1002.5374,9.6779,-0.1128,1.5796,1590683681,N
87,2129951,9.1310,0.0718,3.7831,4.2700,5.1100,1.0500,1002.5389,9.6583,-0.0720,1.6980,1590683681,N
87,2124817,9.5163,-0.1771,3.8644,-1.9600,4.7600,14.7000,1002.5402,9.7379,-0.2212,1.1381,1590683681,N
87,2120840,9.1143,-0.6006,4.0845,-1.2600,6.1600,19.9500,1002.5416,9.7967,-0.4363,-0.0668,1590683681,N
87,2116812,8.7577,-0.8686,4.0702,8.7500,8.1200,22.9600,1002.5433,9.7549,-0.6085,-0.8009,1590683681,N
86,2112578,9.2004,-1.1294,3.8453,3.7800,3.4300,11.2700,1002.5452,7.3740,-0.6196,6.4351,1590683681,N
87,2109292,8.5304,-1.0169,4.6923,1.7500,-1.6100,-7.8400,1002.5463,7.8091,-0.6812,5.8927,1590683682,N
87,2103431,8.5878,-0.8782,4.8981,13.9300,2.3800,-29.2600,1002.5476,8.1654,-0.5084,5.4073,1590683682,N
86,2098735,8.8534,-0.5145,2.9408,30.6600,-2.6600,-32.4100,1002.5487,8.7578,-0.2312,4.4066,1590683682,N
87,2095645,9.1502,0.2393,3.6754,20.1600,-24.8500,-24.3600,1002.5490,7.5044,0.0707,6.3126,1590683682,N
87,2091528,9.5043,1.2227,3.8118,7.6300,-25.3400,-32.1300,1002.5497,8.5498,0.5363,4.7732,1590683682,N
87,2089747,9.9302,1.4261,3.0652,6.3700,-41.7900,-21.6300,1002.5499,8.9545,0.8694,3.9027,1590683682,N
87,2088780,9.3344,1.8449,2.3880,14.6300,-33.4600,-17.2900,1002.5497,9.2172,1.1991,3.1267,1590683682,N
87,2088160,9.4995,1.9071,1.6128,19.3200,-16.8000,-6.5100,1002.5502,9.3887,1.3969,2.4640,1590683682,N
87,2084883,9.9446,2.5292,1.6534,18.5500,2.2400,2.1700,1002.5506,9.4316,1.5820,2.1708,1590683682,N
87,2085252,10.9878,4.2688,1.2945,96.7400,34.8600,-1.6100,1002.5511,9.3332,2.0981,2.1587,1590683682,N
87,2091840,11.1841,2.7900,-0.3996,155.9600,75.6700,1.0500,1002.5516,8.9771,3.2552,2.2331,1590683683,N
87,2090969,8.3079,1.5817,-1.6893,163.8000,92.4000,15.4700,1002.5522,7.9900,5.3989,1.7840,1590683683,N
87,2053870,9.4134,0.9715,2.1799,168.1400,39.7600,79.6600,1002.5527,8.2986,4.9193,1.7619,1590683683,N
87,2054564,8.6859,-0.0909,4.3573,146.1600,23.2400,140.8400,1002.5536,8.9327,3.4624,2.0950,1590683683,N
86,2058187,7.1330,1.2179,6.0826,93.2400,9.0300,143.4300,1002.5539,9.2047,2.1972,2.5722,1590683683,N
87,2083778,10.5045,0.1723,5.7428,98.0000,12.5300,100.5200,1002.5533,9.3480,1.3249,2.6513,1590683683,N
86,2252196,8.9204,2.7350,2.5268,110.6000,93.4500,16.0300,1002.5519,9.0450,2.3985,2.9335,1590683683,N
86,2256462,9.4995,-0.7920,1.3783,-41.9300,37.3800,-24.9900,1002.5490,9.1280,1.8372,3.0781,1590683683,N
86,2229213,10.4806,-3.8213,4.4148,-46.0600,23.3100,3.9200,1002.5461,9.2292,0.9639,3.1723,1590683683,N
86,2193056,8.8917,-1.5242,6.2931,-25.9000,20.5100,-63.1400,1002.5443,9.0691,1.2071,3.5305,1590683683,N
86,2180106,9.4828,1.1940,3.9840,-38.0800,22.5400,-58.1700,1002.5442,8.9066,1.5146,3.8144,1590683684,N
87,2166923,8.3031,-0.3661,5.7141,-22.3300,15.8900,-59.0100,1002.5442,8.6652,1.5352,4.3276,1590683684,N
86,2158027,8.5998,0.4140,4.7545,-28.6300,28.7000,-72.5200,1002.5430,8.1682,1.7658,5.1315,1590683684,N
87,2161907,8.7984,2.5149,5.2546,51.1700,24.2900,-82.4600,1002.5421,7.6726,2.6365,5.5091,1590683684,N
87,2511139,8.4084,2.2564,5.8959,54.0400,127.0500,-111.7200,1002.5417,6.4983,3.4779,6.4689,1590683684,N
87,3930158,3.7304,5.5944,9.1430,18.6900,65.1700,-67.7600,1002.5413,5.3203,4.1325,7.1266,1590683684,N
87,4197910,0.3972,5.8648,9.2339,105.4900,81.9000,-77.3500,1002.5416,3.9242,5.3045,7.2549,1590683684,N
88,3097103,-0.9691,6.2644,6.3362,89.2500,28.1400,-25.1300,1002.5422,2.7263,6.1707,7.1175,1590683684,N
87,2167964,-1.0504,9.5880,4.3908,200.4800,16.1000,-75.1100,1002.5422,1.5977,7.8373,5.6740,1590683684,N
88,2125971,-2.2780,9.5521,2.1488,147.2100,-9.1000,-31.8500,1002.5414,0.5429,8.0485,5.5765,1590683684,N
88,2143818,-1.2778,9.7890,2.0435,107.0300,32.4800,-14.0700,1002.5404,0.0493,9.2075,3.3749,1590683685,N
88,2940871,-3.4816,9.2291,-3.6969,20.7200,92.5400,-3.5000,1002.5396,0.1191,9.7877,-0.5972,1590683685,N
88,2474158,-1.5266,10.5021,-2.2708,75.9500,10.4300,-69.2300,1002.5390,-0.2245,9.7506,-1.0230,1590683685,N
88,2888780,-4.6684,9.1837,-4.3789,133.0000,51.3800,-99.5400,1002.5390,-0.2969,9.5551,-2.1868,1590683685,N
88,2494388,-4.7067,5.4006,-3.1322,-102.2000,-14.7000,-95.6900,1002.5406,-1.8799,9.5722,-1.0046,1590683685,N
88,2774617,-7.1976,5.7954,-3.9458,-8.6100,-26.6000,-122.5000,1002.5433,-3.0129,9.2634,-1.1323,1590683685,N
88,2456489,-7.1139,4.8574,-1.5745,-27.1600,-50.7500,-129.7100,1002.5468,-4.7887,8.5470,-0.4320,1590683685,N
88,2286512,-5.4700,4.0582,-2.4072,-40.4600,-19.3900,-77.6300,1002.5503,-5.5568,8.0776,-0.2117,1590683686,N
88,2344322,-9.0162,4.0630,-4.3095,-9.4500,6.3000,6.3000,1002.5546,-5.3447,8.1903,-0.7234,1590683686,N
88,2304080,-8.7936,2.2995,-2.3665,9.3800,-45.7100,-21.6300,1002.5580,-6.0208,7.6587,-1.1247,1590683686,N
88,2266854,-9.3248,2.1990,-0.2489,11.3400,-44.3800,-6.5100,1002.5610,-6.3286,7.4488,-0.7958,1590683686,N
88,2292022,-9.3918,1.7539,0.1244,13.3000,-12.0400,12.2500,1002.5644,-6.4405,7.3744,-0.5557,1590683686,N
87,2310971,-9.3655,2.8475,-0.1531,-20.6500,1.8900,15.6100,1002.5671,-6.3190,7.4885,-0.4033,1590683686,N
88,2304810,-9.1741,3.3691,-0.9117,-5.2500,5.7400,9.2400,1002.5689,-6.4127,7.3977,-0.5669,1590683686,N
88,2303294,-9.2411,2.9982,-0.8830,-3.6400,-0.2100,1.0500,1002.5698,-6.8255,7.0113,-0.6519,1590683686,N
88,2302331,-9.3033,2.7661,-0.7131,2.2400,-5.4600,3.3600,1002.5712,-7.1563,6.6694,-0.6910,1590683686,N
87,2302014,-9.2004,2.9575,-0.1795,0.7700,-3.6400,3.5000,1002.5733,-7.1977,6.6348,-0.5859,1590683686,N
87,2304797,-9.1813,3.1466,-0.5264,1.1200,1.6100,2.7300,1002.5742,-7.5304,6.2539,-0.5935,1590683686,N
87,2306351,-9.1884,3.0580,-0.6030,2.5900,1.9600,5.8100,1002.5738,-9.5120,2.3697,-0.2768,1590683686,N
87,2307503,-8.9180,3.3117,-0.5647,6.7900,-0.9100,5.6700,1002.5740,-9.4559,2.5759,-0.3486,1590683686,N
87,2316105,-9.1717,3.8237,-0.4834,21.4200,-1.9600,8.1900,1002.5739,-9.4077,2.7386,-0.4058,1590683687,N
87,2404897,-8.8846,3.5438,-0.6508,22.4000,1.2600,4.4100,1002.5736,-9.3541,2.8990,-0.5161,1590683687,N
87,2518549,-10.1264,3.8118,-0.8710,35.0000,33.8100,13.5100,1002.5729,-9.1151,3.4906,-0.9496,1590683687,N
87,2655894,-9.0233,2.0626,-0.7490,78.4000,29.2600,4.3400,1002.5728,-9.1444,3.2854,-1.3256,1590683687,N
86,3207573,-8.3988,2.9599,-1.1988,30.3800,45.1500,6.3700,1002.5728,-8.9623,3.5724,-1.7566,1590683687,N
86,4096722,-8.5711,4.7880,-4.5224,-68.1800,80.5000,4.8300,1002.5719,-8.2741,4.6585,-2.4513,1590683687,N
86,3487374,-8.1141,4.5679,-5.1805,-59.1500,41.8600,-4.2700,1002.5718,-7.8942,5.0272,-2.9290,1590683687,N
86,2944182,-7.4130,4.3502,-4.1420,7.7700,21.6300,-17.5700,1002.5712,-7.8860,4.7893,-3.3232,1590683687,N
86,3230873,-7.5302,3.1178,-5.3480,10.8500,21.6300,-20.0900,1002.5718,-7.9284,4.2971,-3.8529,1590683687,N
86,3301367,-6.6162,2.5484,-5.3192,5.5300,19.3200,-20.0900,1002.5715,-7.9009,3.8823,-4.3212,1590683688,N
86,3337848,-7.7312,3.9123,-5.8313,-4.8300,0.9800,14.7700,1002.5713,-7.7259,3.9740,-4.5485,1590683688,N
86,3258833,-10.7462,5.9318,-5.3288,-24.7100,-23.3800,-32.7600,1002.5717,-8.0297,3.8233,-4.1323,1590683688,N
86,3276201,-9.1837,3.6778,-3.6826,-18.2000,-28.7700,-111.9300,1002.5733,-8.7156,2.8751,-3.4557,1590683688,N
86,3466093,-6.6784,2.1631,-3.2710,-38.9900,-33.8100,-143.0800,1002.5749,-9.3064,1.5501,-2.6754,1590683688,N
86,2737354,-3.0150,-3.7328,-3.2279,-108.4300,-46.5500,-145.3900,1002.5770,-9.6253,-0.4876,-1.8127,1590683688,N
86,2679254,-4.0104,-5.1015,-2.1248,10.2900,-5.3900,38.9200,1002.5784,-9.6355,-0.8510,-1.6137,1590683688,N
86,4197732,-0.4211,4.6684,-8.4443,-88.7600,-53.4100,181.7200,1002.5787,-8.5445,3.1047,-3.6773,1590683688,N
86,2615662,-4.7163,3.1011,1.9813,-36.9600,-91.6300,32.5500,1002.5793,-8.9112,3.4323,-2.2317,1590683688,N
86,2301863,-9.5545,3.3667,-1.0744,14.4200,15.9600,-5.3200,1002.5812,-8.9353,3.4296,-2.1375,1590683688,N
86,3900977,-7.7839,2.6345,-3.7113,109.9000,64.5400,18.2000,1002.5827,-8.6094,3.3430,-3.2976,1590683689,N
86,4197914,-8.5663,2.1224,-5.2570,10.3600,80.7800,-32.2700,1002.5834,-8.3633,3.0190,-4.1367,1590683689,N
86,4197914,-8.7171,3.5366,-6.6832,-24.4300,60.9700,-34.3700,1002.5838,-8.1341,3.0072,-4.5786,1590683689,N
85,4197972,-6.0586,4.0702,-9.2195,-231.0000,-26.6700,-139.2300,1002.5841,-8.5111,3.0643,-3.7870,1590683689,N
86,2438697,-5.3599,2.1799,-5.0441,-108.9200,-31.5700,-121.5900,1002.5847,-8.8829,2.4320,-3.3690,1590683689,N
86,2233285,-5.6183,3.0102,-5.1254,7.1400,-23.6600,-81.7600,1002.5858,-9.0996,1.6774,-3.2487,1590683689,N
85,2236401,-8.0207,1.5434,-5.6782,31.4300,-16.4500,-49.1400,1002.5869,-9.2348,0.9694,-3.1543,1590683689,N
85,2231304,-9.9446,-1.9095,-4.0774,65.9400,-45.2900,-66.2900,1002.5869,-9.5749,-0.5321,-2.0513,1590683689,N
85,2245861,-8.4156,-2.3545,-1.2634,24.9900,-50.6800,-77.2100,1002.5872,-9.6267,-1.8586,0.2078,1590683689,N
85,2246626,-8.8295,-3.4839,-1.5840,27.3000,-17.5700,-34.9300,1002.5876,-9.3513,-2.0779,2.0992,1590683689,N
85,2242659,-8.5041,-4.5990,-1.4596,29.1200,-10.3600,-21.4900,1002.5878,-8.0638,-2.4611,-5.0089,1590683690,N
85,2240904,-8.6572,-4.8957,-1.5817,16.9400,-2.1000,-2.5200,1002.5878,-8.4512,-3.0068,-3.9632,1590683690,N
85,2243120,-8.7434,-3.9793,-1.5099,3.7100,-0.5600,9.8700,1002.5873,-8.7013,-3.1335,-3.2617,1590683690,N
85,2244210,-8.7625,-4.0319,-1.6702,-5.2500,-1.4700,16.2400,1002.5873,-8.8551,-3.1330,-2.8182,1590683690,N
85,2244257,-8.9180,-3.6849,-1.6152,1.3300,-3.2900,22.4000,1002.5869,-9.0072,-3.0257,-2.4260,1590683690,N
84,2244230,-9.1238,-3.0891,-1.6654,-9.0300,-6.5800,16.3100,1002.5864,-9.1296,-2.8495,-2.1683,1590683690,N
85,2241633,-9.2339,-2.9312,-1.4740,-4.9700,-2.9400,8.8200,1002.5858,-9.2018,-2.7584,-1.9719,1590683690,N
85,2241084,-9.1573,-3.3188,-1.1318,-1.4700,7.9100,6.5100,1002.5855,-9.2065,-2.8296,-1.8450,1590683690,N
85,2243621,-9.1190,-3.5486,-0.8997,4.6200,27.6500,28.3500,1002.5851,-9.1950,-2.8906,-1.8072,1590683690,N
84,2266125,-9.0233,-2.2540,-0.8662,82.0400,64.4700,62.0200,1002.5846,-9.1150,-3.0846,-1.8902,1590683690,N
84,2394145,-8.5759,-1.1174,-2.5436,72.8700,98.5600,45.7800,1002.5839,-8.9500,-3.0484,-2.6029,1590683691,N
85,2468902,-7.4536,-0.3685,-5.0082,79.3100,120.9600,2.5900,1002.5837,-8.4832,-3.2500,-3.6938,1590683691,N
85,2498857,-5.7978,-2.4311,-7.7432,-74.0600,102.9700,-54.6700,1002.5830,-7.4924,-3.4913,-5.2768,1590683691,N
85,2378840,-4.7713,-2.2158,-8.9157,-34.6500,95.1300,-35.2100,1002.5829,-6.3431,-3.4893,-6.6151,1590683691,N
85,2343943,-3.2423,-2.2062,-8.0782,-52.7100,73.7800,-4.6900,1002.5833,-5.1986,-3.1249,-7.7059,1590683691,N
85,2313620,-2.3115,-1.0050,-11.2487,-139.6500,0.2100,-22.5400,1002.5843,-4.0056,-1.9668,-8.7325,1590683691,N
85,2275987,-3.1537,2.3761,-9.1119,17.4300,-5.3900,47.5300,1002.5859,-4.9224,-1.1026,-8.4098,1590683691,N
85,2306777,-3.2064,3.6227,-9.6909,-53.9000,2.9400,-22.0500,1002.5880,-3.2231,-0.2525,-9.2584,1590683691,N
85,2336159,-3.4744,1.5625,-8.9228,37.2400,-39.5500,-16.6600,1002.5899,-6.1886,-0.1796,-7.6052,1590683691,N
85,2346929,-4.8239,0.7178,-7.8676,22.1200,-37.5900,-6.7200,1002.5919,-7.7078,-0.0913,-6.0623,1590683691,N
85,2350166,-5.3360,0.5599,-7.4178,-18.8300,-28.7000,-3.7100,1002.5942,-4.6699,0.0888,-8.6229,1590683691,N
85,2343935,-5.6303,1.9693,-8.6692,6.5100,-41.3700,-12.4600,1002.5962,-5.5783,0.3581,-8.0576,1590683692,N
85,2336109,-5.9629,1.1438,-7.3986,29.6800,-44.1000,-26.3900,1002.5985,-5.5250,0.2443,-8.0985,1590683692,N
85,2332664,-7.0301,0.1579,-6.4223,50.9600,-41.1600,-33.6000,1002.6003,-8.5104,-0.1104,-4.8714,1590683692,N
85,2335730,-7.0181,-1.5936,-5.7523,48.8600,-37.1700,-42.1400,1002.6022,-7.6918,-0.8824,-6.0189,1590683692,N
85,2367029,-7.5541,-1.6893,-5.6710,6.6500,-18.0600,-26.3900,1002.6037,-7.5641,-1.2275,-6.1195,1590683692,N
85,2375522,-7.0804,-3.8477,-5.9773,-17.1500,-36.2600,-18.6200,1002.6044,-7.4572,-1.7411,-6.1260,1590683692,N
85,2366763,-7.6187,-2.7852,-5.3097,0.0700,-48.0200,4.6900,1002.6045,-7.8403,-1.9152,-5.5707,1590683692,N
85,2361364,-8.4179,-1.7372,-4.2736,-5.6700,-53.6900,11.2700,1002.6044,-8.3193,-1.7777,-4.8784,1590683692,N
85,2356102,-8.8941,-1.5410,-2.9192,7.9800,-46.5500,8.5400,1002.6044,-8.8009,-1.6842,-3.9847,1590683692,N
86,2353638,-9.1837,-1.5434,-2.2158,-2.5900,-24.4300,0.6300,1002.6044,-9.0543,-1.6465,-3.3880,1590683693,N
86,2353192,-9.2889,-1.4955,-2.2253,-3.5700,-6.9300,-7.0000,1002.6038,-9.1398,-1.6702,-3.1377,1590683693,N
86,2352774,-9.2291,-2.0435,-2.7087,1.4000,-1.0500,-3.0100,1002.6024,-9.1560,-1.7657,-3.0364,1590683693,N
86,2352103,-9.2339,-2.2325,-2.8092,-1.3300,-8.9600,2.8700,1002.6011,-9.1971,-1.8056,-2.8850,1590683693,N
86,2349748,-9.2650,-1.8138,-2.4550,-1.0500,-12.1800,5.8800,1002.5999,-9.2801,-1.7324,-2.6552,1590683693,N
86,2347234,-9.3894,-1.5482,-2.1607,-3.2900,-12.7400,5.6000,1002.5977,-9.3657,-1.6165,-2.4167,1590683693,N
86,2345496,-9.5139,-1.5434,-2.0937,0.4900,-11.0600,3.5000,1002.5959,-9.4252,-1.5438,-2.2255,1590683693,N
86,2344637,-9.5498,-1.2993,-1.8903,-3.9900,-11.7600,3.1500,1002.5944,-9.4839,-1.4322,-2.0430,1590683693,N
86,2344465,-9.5665,-1.2849,-1.6654,-1.1900,-12.2500,5.3200,1002.5938,-9.5443,-1.3228,-1.8238,1590683693,N
86,2343951,-9.5761,-1.1797,-1.4764,-7.0000,-15.4000,3.7100,1002.5928,-9.5983,-1.2118,-1.6047,1590683693,N
86,2341916,-9.5474,-1.4285,-1.0816,-8.8200,-14.4900,4.3400,1002.5922,-9.6439,-1.1617,-1.3473,1590683694,N
87,2339120,-9.6933,-0.8973,-0.9428,-9.5200,-15.4700,-1.1900,1002.5918,-9.6820,-1.0614,-1.1413,1590683694,N
86,2335972,-9.6981,-1.1486,-0.5551,-0.4200,-8.4700,-2.0300,1002.5911,-9.7046,-1.0590,-0.9321,1590683694,N
86,2334658,-9.7149,-1.1677,-0.4283,-0.9800,-2.6600,-1.4000,1002.5900,-9.7156,-1.0707,-0.7947,1590683694,N
86,2334336,-9.6838,-1.2132,-0.6293,-1.6800,2.7300,1.3300,1002.5892,-9.7145,-1.0926,-0.7780,1590683694,N
86,2335083,-9.7196,-1.3902,-0.7777,-1.6100,2.8000,2.0300,1002.5886,-9.7075,-1.1396,-0.7973,1590683694,N
86,2335744,-9.7125,-0.9882,-0.8423,-1.8200,-0.2800,4.6900,1002.5878,-9.7166,-1.0644,-0.7901,1590683694,N
86,2335816,-9.8321,-0.8207,-0.7944,-3.1500,-2.4500,4.2700,1002.5870,-9.7303,-0.9590,-0.7564,1590683694,N
86,2334219,-9.6598,-0.9069,-0.6604,-2.9400,-1.8900,-1.6100,1002.5870,-9.7331,-0.9518,-0.7286,1590683694,N
86,2332743,-9.7053,-0.8949,-0.7131,-1.1200,-1.7500,-2.3800,1002.5869,-9.7338,-0.9520,-0.7196,1590683694,N
86,2331865,-9.8154,-0.9858,-0.7011,0.0700,-0.2800,-0.8400,1002.5870,-9.7331,-0.9624,-0.7146,1590683695,N
86,2331309,-9.6718,-1.0050,-0.6843,0.5600,-1.4700,0.0700,1002.5868,-9.7345,-0.9625,-0.6951,1590683695,N
85,2332542,-9.7388,-0.8782,-0.6652,-0.2800,-3.5000,0.1400,1002.5865,-9.7409,-0.9238,-0.6572,1590683695,N
87,2333610,-9.6311,-0.9212,-0.6150,1.8200,-5.6000,-1.3300,1002.5864,-9.7463,-0.9043,-0.6022,1590683695,N
86,2334167,-9.7029,-1.0433,-0.4116,-0.0700,-7.7000,-1.6800,1002.5861,-9.7535,-0.8902,-0.4979,1590683695,N
87,2333669,-9.6694,-0.8949,-0.2201,-0.7000,-6.7200,2.1700,1002.5858,-9.7659,-0.8124,-0.3703,1590683695,N
87,2331723,-9.8034,-0.7418,-0.1340,1.1900,-8.6800,-1.4000,1002.5856,-9.7771,-0.7220,-0.2391,1590683695,N
86,2330793,-9.7029,-0.8447,0.1029,0.9800,-6.0900,0.5600,1002.5848,-9.7868,-0.6143,-0.1076,1590683695,N
87,2330332,-9.7436,-0.9212,0.1507,1.8200,-3.3600,1.9600,1002.5832,-9.5826,-2.0733,-0.2125,1590683695,N
87,2331138,-9.7340,-0.6461,0.0335,1.6800,-4.1300,0.9100,1002.5812,-9.5309,-2.3046,-0.1454,1590683695,N
87,2332664,-9.7675,-0.7992,0.2225,5.1100,-3.0800,-1.4000,1002.5800,-9.1294,-3.5805,-0.0591,1590683696,N
87,2333895,-9.7460,-1.0672,0.2991,5.6700,-2.1000,3.2900,1002.5792,-8.3198,-5.1906,0.0930,1590683696,N
87,2334218,-9.7699,-0.7729,1.9262,25.2000,12.0400,-1.8900,1002.5779,-9.7382,-1.1058,0.3401,1590683696,N
87,2341923,-9.6168,-1.8281,0.8016,60.4800,82.8800,11.9700,1002.5773,-9.2507,-3.2401,0.3101,1590683696,N
87,2579697,-8.8678,-1.7611,-1.4429,93.7300,106.8200,27.9300,1002.5762,-8.3483,-5.1438,-0.1347,1590683696,N
87,2616034,-8.5591,-1.3280,-4.3047,141.5400,90.8600,19.4600,1002.5757,-8.1205,-5.4434,-0.7733,1590683696,N
86,3092875,-8.3438,-1.0887,-6.2644,8.0500,48.7900,-38.3600,1002.5756,-7.8421,-5.5776,-1.8876,1590683696,N
87,2663655,-7.1139,-2.7422,-6.2237,91.1400,22.8900,-22.8900,1002.5759,-7.5535,-5.8072,-2.3218,1590683696,N
87,3136684,-7.3962,-3.6873,-4.9029,-40.4600,5.5300,-53.8300,1002.5768,-7.4800,-5.5591,-3.0523,1590683696,N
87,2984051,-7.2144,-5.0058,-4.2401,20.5100,14.4200,-20.5800,1002.5782,-7.2664,-5.7234,-3.2578,1590683696,N
86,2986813,-6.7669,-4.4028,-3.9003,5.5300,42.2100,3.3600,1002.5798,-7.1612,-5.6081,-3.6656,1590683697,N
86,2809913,-6.5133,-4.0343,-6.8100,-33.6000,78.8200,-0.5600,1002.5809,-6.7804,-5.2256,-4.7843,1590683697,N
86,2435137,-4.7306,-2.5340,-7.4991,-7.6300,47.2500,1.4700,1002.5827,-6.3927,-4.8017,-5.6787,1590683697,N
86,2384334,-4.6780,-3.5079,-8.8582,-20.6500,31.0800,-12.8800,1002.5840,-5.8193,-4.5575,-6.4449,1590683697,N
86,2367416,-4.9005,-2.9312,-8.9874,5.9500,0.9100,-18.6200,1002.5861,-5.5592,-4.3570,-6.8031,1590683697,N
85,2374976,-4.7952,-3.6754,-7.6259,9.5200,-9.4500,-25.0600,1002.5891,-5.3801,-4.4165,-6.9079,1590683697,N
85,2426035,-5.0034,-4.2449,-7.1880,18.7600,-9.6600,-26.7400,1002.5925,-5.2736,-4.6284,-6.8511,1590683697,N
85,2548767,-4.7952,-4.7091,-7.4010,13.8600,-3.9200,-23.1000,1002.5962,-5.0925,-4.8214,-6.8550,1590683697,N
85,2647775,-2.9384,-5.5992,-6.8770,-7.4900,1.4000,-32.6900,1002.5993,-4.5166,-5.1515,-7.0166,1590683697,N
85,2683631,-4.7282,-3.6921,-7.1091,-29.1900,8.6100,-7.0000,1002.6018,-4.4989,-4.7303,-7.3181,1590683697,N
85,2600616,-3.7519,-4.4363,-6.8052,-39.0600,0.4200,5.9500,1002.6037,-4.3809,-4.4769,-7.5456,1590683698,N
85,2390127,-3.8501,-4.6110,-8.5663,14.7000,12.9500,24.9200,1002.6054,-4.2694,-4.4242,-7.6400,1590683698,N
86,2425086,-4.9819,-2.9791,-7.9561,-36.4000,-13.5100,-9.3800,1002.6071,-4.3933,-3.9474,-7.8286,1590683698,N
86,2417538,-4.3908,-3.8381,-7.8509,-0.1400,-7.3500,-5.1800,1002.6093,-4.4250,-3.9609,-7.8039,1590683698,N
86,2401036,-4.2927,-4.4770,-7.7599,-11.6900,-12.4600,7.0700,1002.6106,-4.4751,-3.9697,-7.7708,1590683698,N
86,2395730,-4.5966,-3.3619,-7.5781,2.8700,-11.9000,22.0500,1002.6124,-4.7062,-3.8215,-7.7083,1590683698,N
87,2397671,-4.9747,-3.1178,-7.6642,12.4600,-10.7100,22.8200,1002.6140,-4.9783,-3.6942,-7.5987,1590683698,N
87,2403198,-5.3097,-2.8044,-7.6881,14.7000,-12.0400,13.9300,1002.6146,-5.2402,-3.5672,-7.4824,1590683698,N
86,2428020,-5.2451,-3.4289,-7.0301,20.3000,-11.2700,2.8700,1002.6150,-5.4275,-3.6895,-7.2870,1590683698,N
87,2460033,-5.6686,-3.6802,-6.6999,14.9100,-9.3100,-3.4300,1002.6152,-5.5921,-3.8214,-7.0920,1590683698,N
87,2479338,-5.6710,-3.9960,-6.4008,8.0500,-0.0700,-5.4600,1002.6149,-5.6473,-3.9602,-6.9710,1590683699,N
87,2498412,-5.4461,-4.1563,-6.6975,1.6100,4.0600,-2.5200,1002.6141,-5.5991,-4.0369,-6.9659,1590683699,N
86,2497802,-5.2762,-4.2951,-7.0708,0.2100,4.8300,-2.1700,1002.6140,-5.4932,-4.0963,-7.0154,1590683699,N
87,2499022,-5.3886,-4.2640,-7.0780,3.5700,0.9100,3.9200,1002.6139,-5.4851,-4.1273,-7.0035,1590683699,N
86,2501330,-5.5107,-3.9314,-6.8339,1.9600,-1.5400,6.8600,1002.6134,-5.5574,-4.0847,-6.9714,1590683699,N
86,2501560,-5.5107,-3.7735,-6.9224,-0.9100,-1.4000,5.2500,1002.6127,-5.6019,-4.0089,-6.9798,1590683699,N
87,2498723,-5.4796,-3.8668,-6.9033,1.7500,-3.6400,-3.9200,1002.6119,-5.6065,-4.0256,-6.9665,1590683699,N
86,2503348,-5.4509,-4.1850,-6.5922,4.6900,-5.5300,-7.7000,1002.6107,-5.6164,-4.1485,-6.8860,1590683699,N
86,2510879,-5.5202,-4.4506,-6.7956,6.3000,-8.4700,-4.6900,1002.6096,-5.6375,-4.2708,-6.7934,1590683699,N
86,2537831,-5.6423,-4.5009,-6.5970,5.6700,-6.7200,-4.6900,1002.6077,-5.6704,-4.3778,-6.6971,1590683699,N
87,2574171,-5.8840,-4.2209,-6.5133,6.9300,-7.5600,1.7500,1002.6055,-5.7854,-4.3867,-6.5921,1590683700,N
86,2569736,-5.9342,-4.1850,-6.3601,9.8700,-7.2800,-0.9800,1002.6038,-5.8868,-4.4218,-6.4780,1590683700,N
86,2572371,-5.8624,-4.7545,-6.0849,8.8900,-5.8100,-3.9900,1002.6028,-5.9234,-4.5693,-6.3408,1590683700,N
87,2583060,-5.8672,-4.8526,-5.9438,8.8200,-8.1200,0.2100,1002.6011,-5.9891,-4.6884,-6.1904,1590683700,N
86,2595131,-6.1041,-4.7569,-5.8935,9.0300,-6.5800,3.0800,1002.6002,-6.0834,-4.7421,-6.0561,1590683700,N
87,2587555,-6.1208,-4.7282,-5.7595,8.4700,-5.6000,2.2400,1002.5994,-6.1612,-4.7872,-5.9407,1590683700,N
86,2575375,-6.0873,-4.9962,-5.4485,15.8200,-5.8800,-5.1800,1002.5989,-6.1935,-4.9612,-5.7617,1590683700,N
87,2579360,-6.4271,-5.4485,-5.0130,8.6800,-5.8800,-7.0000,1002.5980,-6.2463,-5.1429,-5.5412,1590683700,N
86,2664504,-5.2834,-6.2620,-5.4580,13.3000,-4.9700,24.8500,1002.5971,-6.2144,-5.2936,-5.4341,1590683700,N
87,2737601,-6.2931,-6.7956,-5.7332,-4.6200,-10.7800,59.7100,1002.5958,-6.5590,-4.9855,-5.3193,1590683700,N
86,2752203,-6.3290,-3.7041,-5.6207,-15.0500,-26.9500,86.3100,1002.5944,-7.1791,-4.1641,-5.2241,1590683701,N
86,2682354,-7.2909,-2.3234,-5.4652,-9.9400,-43.2600,82.7400,1002.5931,-7.9191,-3.1669,-4.8404,1590683701,N
86,2633384,-8.5591,-0.9667,-4.0510,-23.2400,-64.8900,70.2100,1002.5922,-8.7352,-1.9960,-3.9853,1590683701,N
85,2589564,-6.3194,-1.0552,-3.2064,-12.1800,-89.6000,69.3000,1002.5912,-9.3687,-1.0741,-2.6914,1590683701,N
85,2593089,-9.3177,0.7155,-4.0798,118.3000,-76.0900,136.0100,1002.5897,-9.7556,0.4460,-0.8948,1590683701,N
85,2708159,-9.5785,10.4064,4.6086,-36.0500,-133.4900,48.5800,1002.5889,-6.6604,4.7274,5.4278,1590683701,N
85,2395643,-7.7121,2.4766,5.5442,-178.3600,-10.3600,-103.1800,1002.5881,-2.6124,1.9702,-9.2447,1590683701,N
86,2968752,-8.6907,-0.4427,2.7685,97.1600,44.3100,-4.0600,1002.5871,-8.6287,1.7215,4.3305,1590683701,N
86,3458083,-9.2052,3.6371,0.6820,52.3600,51.3800,26.6000,1002.5844,-2.5916,2.4274,9.1412,1590683701,N
86,3140158,-9.0855,3.9649,-2.1153,-56.2800,-48.5100,-102.2000,1002.5802,-8.8349,1.9508,-3.7827,1590683701,N
86,2356703,-8.0016,-0.4762,-0.4211,103.1800,-116.9000,-131.8800,1002.5763,-3.4791,-1.7134,-9.0073,1590683702,N
86,2323403,4.2760,-5.7978,23.2487,-117.1100,-226.9400,-165.2700,1002.5729,-1.8320,-4.1820,8.6790,1590683702,N
86,2276042,-7.3149,-1.9645,3.9673,175.3500,15.5400,64.6800,1002.5698,-4.0555,-5.5075,-7.0279,1590683702,N
86,2337360,-9.1262,0.6173,3.7807,4.2700,-10.1500,47.5300,1002.5667,-6.7527,-4.6767,-5.3573,1590683702,N
86,2325783,-7.8963,-0.3805,5.4556,59.4300,-20.0200,52.1500,1002.5641,-8.5502,-4.5947,-1.3978,1590683702,N
86,2300158,-8.0255,1.5817,5.6231,-26.9500,-6.9300,47.5300,1002.5627,-9.3379,-2.9567,0.4823,1590683702,N
86,2316130,-7.3843,-0.5360,6.1184,-24.7800,-63.4200,57.4000,1002.5602,-9.2045,-3.0436,1.4776,1590683702,N
86,2428316,-8.0447,8.4036,9.7723,6.7900,-6.4400,-16.5200,1002.5572,-9.2595,-2.4536,2.1004,1590683702,N
86,2372946,-8.0925,3.0724,5.6758,22.6800,32.6200,-29.8900,1002.5552,-9.2264,-2.7117,1.9213,1590683702,N
86,2369756,-7.7886,1.4285,3.7783,17.3600,0.5600,-11.6900,1002.5525,-9.0918,-3.2209,1.7705,1590683702,N
86,2309083,-7.5541,2.6225,5.8959,12.1100,-4.6900,3.3600,1002.5493,-8.9580,-3.3471,2.1728,1590683703,N
86,2275552,-7.7073,2.3952,5.3815,-7.8400,3.0800,0.7000,1002.5465,-8.8641,-3.4184,2.4318,1590683703,N
86,2275849,-7.5350,4.1372,6.0610,2.5200,-1.1900,-15.0500,1002.5441,-8.8486,-3.1057,2.8683,1590683703,N
86,2275472,-7.4608,1.4764,6.7430,-83.7900,7.1400,-54.3900,1002.5414,-8.6315,-3.5775,2.9782,1590683703,N
86,2279628,-7.5230,-0.9882,6.3529,-159.1800,50.4000,-52.9900,1002.5385,-8.3394,-4.5098,2.5075,1590683703,N
86,2524645,-7.8197,-1.9908,3.7472,65.3100,104.0200,39.5500,1002.5358,-9.0373,-2.9755,2.3755,1590683703,N
86,4197817,-10.1121,-1.8425,1.9334,49.6300,40.1800,38.7800,1002.5327,-9.4633,-1.6816,1.9466,1590683703,N
86,4197909,-10.6768,2.3306,-0.2034,27.3700,-4.4100,-33.6000,1002.5298,-9.5345,-1.3912,1.8242,1590683703,N
86,4198008,-9.6383,0.2465,2.7781,53.5500,-0.4900,-30.7300,1002.5280,-9.5485,-1.0526,1.9722,1590683703,N
86,4054930,-9.4636,-1.2610,2.1799,12.7400,-12.8800,-28.4200,1002.5270,-9.4496,-1.3470,2.2498,1590683703,N
86,3328859,-9.1573,-1.2491,2.4885,21.0000,-8.3300,-12.4600,1002.5276,-9.3870,-1.4158,2.4597,1590683704,N
86,3029045,-9.1023,-3.1848,4.3908,44.3800,-14.9100,-14.5600,1002.5285,-9.1159,-1.8034,3.1335,1590683704,N
86,2828195,-9.4086,-3.4792,1.7515,22.8900,-2.2400,-51.6600,1002.5294,-8.9324,-2.4831,3.1965,1590683704,N
85,2637558,-8.6716,-3.6060,2.3713,0.9100,-7.6300,-60.4100,1002.5303,-8.6565,-3.1866,3.3289,1590683704,N
86,2517248,-8.7601,-4.6134,2.7350,15.9600,18.6900,21.5600,1002.5303,-8.7836,-3.1436,3.0227,1590683704,N
86,2621202,-9.1119,-1.7300,1.0792,-101.8500,28.2100,7.4900,1002.5308,-9.0943,-3.0066,2.1036,1590683704,N
86,3267996,-9.4421,-3.9625,-0.1890,-71.0500,-30.5200,15.4000,1002.5310,-8.9907,-3.5217,1.7130,1590683704,N
86,3449490,-8.8774,-2.6824,1.2969,-51.6600,-56.6300,26.6000,1002.5308,-8.8043,-3.8653,1.9271,1590683704,N
86,3147201,-9.2243,-2.9240,4.1444,28.7700,-30.3100,17.5000,1002.5311,-8.8353,-3.4246,2.5258,1590683704,N
86,2878414,-9.0185,-0.6652,4.0845,-24.7100,-4.3400,-9.7300,1002.5315,-8.9212,-2.9575,2.7991,1590683704,N
86,2990897,-8.9348,-3.9218,1.7013,-63.6300,-10.9200,-20.7900,1002.5313,-8.7268,-3.6594,2.5733,1590683705,N
86,2849050,-8.8702,-2.5531,3.4887,4.7600,-7.6300,13.7200,1002.5306,-8.8119,-3.2879,2.7768,1590683705,N
86,2870520,-8.4467,-2.8977,2.3091,-48.0900,-5.7400,-7.2800,1002.5307,-8.7575,-3.5204,2.6614,1590683705,N
86,2923584,-9.3942,-1.7061,3.3595,65.2400,-8.7500,3.0800,1002.5304,-8.8884,-2.8595,2.9982,1590683705,N
86,2712398,-8.6596,-4.0175,2.7900,-15.4700,-2.6600,-20.2300,1002.5305,-8.7330,-3.3025,2.9999,1590683705,N
86,2617880,-8.9276,-2.5651,3.1011,4.9700,1.3300,-1.8200,1002.5300,-8.7817,-3.1396,3.0322,1590683705,N
86,2623596,-8.8630,-2.9886,3.1226,7.0000,1.1900,-21.3500,1002.5295,-8.7115,-3.2464,3.1211,1590683705,N
86,2658348,-8.4323,-4.1324,3.4648,-0.1400,10.2900,-32.1300,1002.5291,-8.5364,-3.6192,3.1940,1590683705,N
86,3094195,-8.1954,-4.7928,2.5268,-11.6200,9.9400,-20.3700,1002.5290,-8.4376,-3.9942,3.0040,1590683705,N
86,2966276,-8.1428,-5.0895,2.5651,0.8400,8.4700,2.4500,1002.5291,-8.4241,-4.1309,2.8533,1590683705,N
86,2851079,-8.4897,-4.5870,2.5125,-12.1100,14.7000,8.1200,1002.5296,-8.5073,-4.1183,2.6147,1590683706,N
86,2657097,-8.3055,-4.3454,2.5101,-6.6500,22.1900,12.5300,1002.5297,-8.6332,-3.9900,2.3911,1590683706,N
86,2630846,-8.6477,-4.6636,1.0816,-6.5100,15.1900,17.4300,1002.5298,-8.7834,-3.8953,1.9617,1590683706,N
86,2809659,-8.9444,-4.3502,0.5121,2.1000,-15.1900,35.0000,1002.5291,-8.8801,-3.7820,1.7351,1590683706,N
86,3063640,-9.1454,-3.0413,1.5003,-18.9000,-28.7700,19.8100,1002.5284,-8.8628,-3.7723,1.8413,1590683706,N
87,3060622,-9.3320,-3.0221,4.1085,-19.9500,4.2700,14.6300,1002.5278,-8.9163,-3.5027,2.0980,1590683706,N
87,3652859,-9.0808,-3.1418,1.0313,-32.9000,22.8200,1.2600,1002.5275,-9.0326,-3.4473,1.6428,1590683706,N
87,4099047,-9.1310,-3.1155,0.1675,-3.5000,21.7000,14.7700,1002.5272,-9.2189,-3.1402,1.1493,1590683706,N
87,4197816,-8.9085,-1.8497,0.1795,-3.6400,-19.3200,-7.2800,1002.5272,-9.1606,-3.3219,1.1038,1590683706,N
88,4197908,-9.3775,-2.7230,1.1797,8.1900,-18.3400,-4.4800,1002.5284,-9.1220,-3.3630,1.2844,1590683706,N
88,3933301,-9.2530,-2.4359,1.2227,10.8500,-29.5400,-23.5200,1002.5299,-8.9999,-3.5678,1.5628,1590683706,N
88,3687894,-8.8415,-3.6179,2.4311,35.3500,-45.5000,-8.9600,1002.5301,-8.7885,-3.7788,2.1571,1590683707,N
88,2722891,-7.9777,-4.8909,4.6947,7.7700,-47.2500,-8.1200,1002.5298,-8.3309,-4.2514,2.9484,1590683707,N
89,2439543,-8.4156,-3.1131,4.0463,59.8500,-13.0900,39.6900,1002.5292,-8.5300,-3.5009,3.3397,1590683707,N
89,2427879,-8.7769,-1.3137,4.7761,22.3300,-11.6900,14.4200,1002.5276,-8.6199,-2.8767,3.6868,1590683707,N
89,2368366,-8.5041,-2.6345,3.2686,12.8800,-5.9500,28.0700,1002.5262,-8.7431,-2.6019,3.5999,1590683707,N
89,2350857,-7.9035,-2.8546,6.7382,-17.0800,-18.2700,4.6900,1002.5254,-8.4615,-2.7304,4.1374,1590683707,N
89,2371471,-7.9777,-1.5027,5.8481,55.7200,16.6600,22.8900,1002.5250,-8.5381,-2.1149,4.3356,1590683707,N
90,2476425,-9.1813,1.4859,2.1751,65.3100,11.9700,22.8200,1002.5238,-8.7857,-0.9197,4.2586,1590683707,N
90,2498563,-8.8534,-1.4620,4.7809,-1.4700,-16.0300,-17.5000,1002.5225,-8.5381,-1.1559,4.6835,1590683707,N
90,2397972,-8.3964,-1.0361,5.2810,30.5200,-10.0100,-0.5600,1002.5215,-8.2733,-1.0459,5.1604,1590683708,N
90,2397318,-8.8487,0.9165,4.9484,55.0200,43.2600,2.1700,1002.5206,-7.4632,-0.4239,6.3476,1590683708,N
91,2352803,-7.6666,-0.6556,6.1065,-39.0600,40.2500,-11.9000,1002.5193,-8.2994,-0.6922,5.1779,1590683708,N
91,2327718,-7.0995,-1.1366,2.3426,-23.1700,-9.4500,-7.5600,1002.5184,-8.6054,-0.9387,4.6082,1590683708,N
91,2328923,-10.3944,0.0096,4.6325,67.9000,27.7900,42.2800,1002.5172,-8.6462,-0.3012,4.6176,1590683708,N
91,2506723,-10.5021,5.0991,-1.1533,-5.3200,-19.1800,-11.3400,1002.5166,-9.5502,0.0642,2.2272,1590683708,N
91,2631233,-12.3135,0.4092,2.4646,-71.1900,-60.8300,-76.6500,1002.5156,-7.2883,-0.5172,6.5409,1590683708,N
91,2385541,-6.3506,-1.5147,6.7860,-5.3200,-29.4700,-27.9300,1002.5153,-7.0538,-0.8854,6.7550,1590683708,N
92,2405694,-5.9414,-2.7446,5.2594,-39.2700,-50.1900,-50.4700,1002.5164,-6.9165,-1.6355,6.7570,1590683708,N
92,2417406,-4.8191,-4.0223,7.9083,-29.4700,41.8600,27.5800,1002.5165,-7.1009,-2.1313,6.4192,1590683708,N
92,2910234,-8.4586,1.9190,5.8313,-14.9100,95.9000,69.7200,1002.5162,-8.3660,-0.9839,5.0212,1590683709,N
92,2712807,-12.6724,-2.5460,1.6367,51.6600,20.1600,129.6400,1002.5158,-9.6325,0.1554,1.8336,1590683709,N
92,3003589,-9.9494,3.5940,4.9938,-74.6200,-9.0300,7.6300,1002.5151,-9.6714,0.3714,1.5798,1590683709,N
92,2558275,-7.8987,-1.8592,5.4556,-3.6400,26.7400,4.1300,1002.5154,-9.5291,-0.0502,2.3159,1590683709,N
92,3268860,-9.5617,1.0911,2.1679,45.4300,36.7500,33.9500,1002.5154,-9.7395,0.5631,-0.9974,1590683709,N
92,3761388,-9.6000,3.5868,0.8877,22.5400,-1.1200,-19.4600,1002.5161,-9.0508,1.0084,3.6382,1590683709,N
92,3123654,-9.1597,-2.4957,3.3236,-79.1000,-35.0700,-66.5700,1002.5166,-8.8593,-0.2976,4.1945,1590683709,N
92,2517564,-9.3894,-0.9284,4.0582,16.0300,-30.4500,-30.9400,1002.5165,-8.1416,-0.5736,5.4366,1590683709,N
92,2398085,-9.1358,-2.3545,4.3860,101.7800,-9.5900,11.2000,1002.5165,-7.0097,-0.4148,6.8456,1590683709,N
92,2384794,-8.8439,3.4816,4.9962,91.4900,-6.3000,-17.3600,1002.5162,-9.4888,0.1146,2.4738,1590683709,N
92,2404131,-5.9988,-2.6225,5.3001,106.3300,-3.3600,-1.4700,1002.5150,-9.4935,0.0143,2.4584,1590683710,N
92,2639536,-8.6477,0.0646,3.4074,77.3500,23.4500,37.1000,1002.5146,-9.4134,0.4655,2.7096,1590683710,N
92,2498766,-7.5182,3.1633,3.1226,-54.6700,-7.8400,24.4300,1002.5136,-9.1287,0.9371,3.4582,1590683710,N
92,2443630,-9.9541,4.7952,5.7811,11.9700,21.3500,7.5600,1002.5131,-9.0300,1.3324,3.5854,1590683710,N
92,2416709,-8.5567,1.1103,4.5583,-125.8600,30.8700,-14.8400,1002.5119,-8.8879,0.8686,4.0523,1590683710,N
93,2452953,-8.9444,1.8401,2.6034,23.2400,6.7200,31.3600,1002.5109,-8.9269,1.3719,3.8208,1590683710,N
93,3184042,-9.6359,2.0387,3.0365,10.0100,3.6400,-18.3400,1002.5098,-9.1169,1.3623,3.3462,1590683710,N
93,3020990,-9.3248,5.4700,3.0652,23.1000,-9.2400,-61.9500,1002.5089,-9.3003,1.2254,2.8589,1590683710,N
93,3001966,-8.7171,-2.8618,2.1942,-124.0400,-50.3300,-85.2600,1002.5083,-9.7901,-0.5130,-0.2458,1590683710,N
94,2499341,-8.1906,-1.3184,5.1374,-2.5200,-33.9500,-34.5800,1002.5084,-6.6279,-0.5452,7.2072,1590683710,N
93,2341032,-8.0710,-3.2662,4.7880,-38.9900,-23.0300,-22.9600,1002.5081,-7.6256,-1.4486,5.9935,1590683711,N
94,2313416,-7.6642,-1.1342,4.7426,15.3300,-24.3600,-29.6100,1002.5082,-7.3131,-1.5012,6.3589,1590683711,N
94,2322896,-7.1689,-2.9408,6.2381,24.7800,11.3400,-3.6400,1002.5085,-7.2320,-1.6789,6.4070,1590683711,N
94,2346326,-7.8269,-1.7204,5.1948,6.2300,19.1800,29.7500,1002.5092,-7.6707,-1.5261,5.9163,1590683711,N
94,2366548,-8.5280,-0.7370,5.0991,68.9500,22.8900,20.0900,1002.5084,-7.4253,-0.9646,6.3329,1590683711,N
95,2382218,-9.1621,0.2919,4.7856,5.4600,19.4600,-13.4400,1002.5070,-7.3031,-0.7492,6.5018,1590683711,N
94,2415709,-9.3177,-4.7761,5.7500,-105.7000,-39.4800,-29.8900,1002.5062,-7.9861,-1.7821,5.4052,1590683711,N
95,2363524,-8.6668,0.6772,4.2592,30.4500,1.2600,29.1200,1002.5045,-8.1262,-0.9875,5.4001,1590683711,N
95,2421695,-9.4828,0.3637,3.8524,-28.4200,0.1400,9.7300,1002.5035,-8.5412,-0.7296,4.7630,1590683711,N
95,2522672,-8.5400,-1.1533,4.6923,14.4900,-25.4100,-8.1900,1002.5026,-8.2388,-0.8354,5.2531,1590683711,N
95,2487933,-8.4921,-1.6989,4.5129,-95.0600,-7.9800,-65.8700,1002.5018,-8.2051,-1.7562,5.0757,1590683712,N
95,2433649,-8.0758,-3.4911,4.1085,-53.9000,-0.4900,-22.4000,1002.5015,-8.2218,-2.4342,4.7589,1590683712,N
95,2362246,-6.8913,-5.2259,2.6895,-148.1900,-0.4900,-14.7700,1002.5015,-8.1748,-3.6830,3.9722,1590683712,N
95,2346104,-6.5085,-4.7904,6.0251,-95.7600,-27.2300,-6.5100,1002.5007,-7.6510,-4.4589,4.2132,1590683712,N
95,2355567,-8.1356,-7.8939,3.4600,133.0700,6.1600,34.1600,1002.5000,-7.8275,-3.8069,4.5175,1590683712,N
96,2471834,-9.4373,1.4907,4.4004,30.2400,7.4900,2.8000,1002.4991,-8.1962,-2.5842,4.7237,1590683712,N
96,2386042,-8.6429,-6.4487,3.1274,10.2200,23.4500,12.2500,1002.4982,-8.3632,-2.7485,4.3213,1590683712,N
96,2386720,-9.9565,3.4672,1.6199,181.4400,-19.0400,5.6700,1002.4971,-6.9258,-0.6844,6.9091,1590683712,N
95,2452634,-7.6403,-2.2923,6.1328,164.0800,-27.0200,1.0500,1002.4952,-9.7283,-0.9677,0.7711,1590683712,N
95,2445437,-6.4511,-2.4909,7.1976,140.7000,1.1900,45.1500,1002.4939,-9.5708,-0.5863,2.0558,1590683712,N
95,2462787,-8.1165,4.2568,4.2903,25.4100,12.6700,32.3400,1002.4934,-9.1576,0.6980,3.4384,1590683713,N
95,2562488,-6.4199,0.9715,4.9316,-11.6900,67.8300,79.1700,1002.4920,-8.8793,1.3431,3.9400,1590683713,N
96,3033869,-10.1169,8.4538,2.5172,11.7600,5.9500,12.6700,1002.4907,-8.7908,1.9747,3.8720,1590683713,N
95,3218431,-11.7272,2.8164,3.6227,-63.3500,-25.6900,-119.9800,1002.4890,-9.2632,0.8195,3.1132,1590683713,N
96,3226016,-9.6383,-1.5266,2.7589,-133.3500,-73.6400,-173.8800,1002.4876,-9.7317,-1.2068,-0.0881,1590683713,N
96,3069802,-5.9557,-8.5161,2.9192,-125.1600,-98.2800,-106.7500,1002.4875,-6.6006,-2.7484,6.7119,1590683713,N
95,2774536,-1.2203,-7.0301,2.4526,-172.0600,-201.3200,-128.7300,1002.4877,-4.6292,-5.0744,6.9994,1590683713,N
96,2563379,-1.2634,-4.9053,7.9035,39.2700,-18.9700,34.7200,1002.4888,-3.9151,-4.7450,7.6372,1590683713,N
95,3384377,-2.0889,-8.7721,7.1904,58.1700,16.5200,57.2600,1002.4893,-3.9705,-4.3942,7.8164,1590683713,N
95,4197849,-3.5127,-3.9338,7.4512,106.5400,127.5400,140.4900,1002.4907,-5.0922,-3.3285,7.6916,1590683713,N
95,2800539,-5.3886,-5.1876,5.9988,-89.7400,63.7700,21.7700,1002.4905,-5.9328,-4.2125,6.5747,1590683714,N
95,2560469,-6.7908,-2.9216,3.9218,-24.5000,-74.2700,-107.3100,1002.4894,-5.1645,-4.8478,6.7821,1590683714,N
95,2453108,-8.9970,-4.3980,3.8812,-88.4800,43.6800,-4.1300,1002.4875,-6.0863,-5.3481,5.5250,1590683714,N
95,2560234,-7.4034,-5.1613,2.3689,-33.1800,30.1000,-11.2000,1002.4863,-6.5500,-5.6718,4.5933,1590683714,N
95,2668304,-9.6168,-7.6618,0.3709,-18.8300,1.2600,-24.7800,1002.4862,-6.5725,-6.0898,3.9858,1590683714,N
95,2554638,-6.7214,-7.0158,1.5266,13.8600,-9.2400,11.6900,1002.4861,-6.7060,-6.1812,3.6045,1590683714,N
95,2439275,-6.8722,-5.2594,2.9695,18.7600,-53.2700,16.5200,1002.4863,-6.7035,-6.0013,3.9010,1590683714,N
95,2410643,-5.5298,-3.7974,3.4624,-20.7900,-26.7400,7.7000,1002.4880,-6.6426,-5.9867,4.0256,1590683714,N
95,2412009,-6.2883,-8.4969,1.0983,-36.4700,-26.7400,6.0200,1002.4894,-6.4196,-6.6024,3.3716,1590683714,N
95,2406337,-6.2931,-5.0010,2.5077,-45.9200,-34.9300,18.0600,1002.4905,-6.3313,-6.7459,3.2525,1590683714,N
95,2411390,-5.1254,-5.1996,8.5783,59.3600,14.4200,52.7100,1002.4916,-6.7896,-5.8412,3.9940,1590683715,N
96,2417255,-5.1900,-5.2977,5.0345,138.5300,58.1000,75.1100,1002.4922,-7.3717,-4.6382,4.5072,1590683715,N
96,2420942,-10.0834,-3.7591,5.9151,66.1500,90.4400,38.9900,1002.4909,-8.1310,-3.6847,4.0596,1590683715,N
96,2660351,-6.6975,-0.7083,1.2156,51.4500,89.8800,3.8500,1002.4905,-8.7279,-3.0024,3.3135,1590683715,N
96,2602890,-10.3179,0.7250,-0.7657,128.1700,74.6200,-44.9400,1002.4906,-8.8404,-2.1823,3.6407,1590683715,N
96,2576612,-8.0758,-8.8606,-1.4094,-114.7300,-24.6400,-90.1600,1002.4910,-8.6679,-3.5610,2.8909,1590683715,N
96,2446875,-9.1932,-2.3258,0.4738,-18.6900,-22.6100,13.9300,1002.4924,-8.9324,-3.3510,2.2703,1590683715,N
97,2444965,-8.3342,-1.5410,2.5388,84.9800,-0.3500,-12.6700,1002.4944,-8.8956,-3.0118,2.8227,1590683715,N
97,2748783,-7.1019,-4.8766,0.9452,-0.8400,5.1800,-18.4800,1002.4966,-8.8360,-3.3474,2.6251,1590683715,N
97,3213453,-7.1091,-9.5593,1.0600,-21.4900,-42.9800,10.0800,1002.4985,-8.5907,-3.8436,2.7562,1590683715,N
97,2608699,-8.1523,-6.4917,1.5984,-107.3800,-84.7000,12.5300,1002.5001,-8.0924,-4.8137,2.7407,1590683716,N
97,2407029,-8.5687,-2.4598,5.2714,109.6900,-40.6000,34.9300,1002.5018,-8.2095,-3.7885,3.7976,1590683716,N
97,2401951,-8.4299,-6.2094,4.6134,-46.8300,-10.2200,-7.8400,1002.5026,-8.0028,-4.2536,3.7460,1590683716,N
97,2386488,-7.2718,-4.4004,3.5438,-9.9400,-3.0100,8.1900,1002.5027,-7.9722,-4.3307,3.7229,1590683716,N
97,2380907,-8.0542,-5.5035,2.5579,31.0800,-22.2600,-22.2600,1002.5037,-7.7732,-4.6307,3.7820,1590683716,N
97,2405891,-6.1783,-4.9531,3.9529,-23.1700,-42.8400,21.7000,1002.5038,-7.4786,-4.8708,4.0641,1590683716,N
97,2399429,-7.5087,-2.7446,4.7713,42.5600,-59.7100,58.8000,1002.5039,-7.6118,-3.9943,4.7199,1590683716,N
97,2436507,-7.2574,-4.7833,6.1424,88.4100,-102.1300,-48.7900,1002.5038,-6.5784,-4.0795,6.0210,1590683716,N
97,2806278,-2.1248,-4.5751,8.0112,3.5000,-4.3400,55.3000,1002.5035,-5.9408,-4.1360,6.6160,1590683716,N
97,2527086,-4.1420,-2.4072,6.7358,-30.8700,5.7400,-9.1000,1002.5030,-5.8966,-4.2372,6.5915,1590683716,N
96,2410784,-7.5733,-5.2451,5.5681,-72.1700,10.9200,25.8300,1002.5018,-6.3796,-4.5955,5.8611,1590683717,N
97,2437270,-13.1964,-5.9940,4.4315,-31.6400,-6.0200,138.0400,1002.5000,-7.3889,-3.8253,5.1905,1590683717,N
96,2440385,-6.4845,1.9573,8.5950,9.3100,61.6000,76.0900,1002.4977,-8.2790,-2.3976,4.6776,1590683717,N
96,2437159,-8.6237,0.1675,4.0080,82.8100,91.2800,33.8800,1002.4963,-9.0409,-1.0685,3.6457,1590683717,N
97,2484675,-9.0377,1.0504,2.4191,66.2200,71.3300,-11.2000,1002.4949,-9.3479,-0.4196,2.9345,1590683717,N
96,2733246,-9.3966,0.4355,1.9573,26.6000,64.8900,-60.6900,1002.4937,-8.6355,-0.5895,4.6098,1590683717,N
97,2869448,-10.0666,-1.2275,0.4953,115.8500,73.5700,-72.7300,1002.4924,-8.7935,-1.1003,4.1992,1590683717,N
97,3000227,-9.5186,-1.6223,0.9236,141.1900,40.6700,-116.7600,1002.4922,-8.5692,-1.6946,4.4573,1590683717,N
97,2782645,-9.2267,-6.6951,0.4857,84.8400,24.7100,-148.8900,1002.4919,-8.2676,-2.7586,4.4952,1590683717,N
98,2549361,-8.4610,-7.3747,0.9523,102.9700,-13.2300,-154.3500,1002.4924,-7.9053,-3.7068,-4.4650,1590683717,N
97,2461160,-4.4028,-6.6353,2.9838,100.6600,-45.5700,-127.8200,1002.4933,-7.6564,-4.7924,-3.8187,1590683718,N
98,2436854,-1.6032,-8.0231,3.9601,85.9600,-64.6100,-111.5800,1002.4948,-5.2424,-4.3724,7.0406,1590683718,N
97,2433664,1.0816,-9.7986,5.9031,52.1500,-31.3600,-60.0600,1002.4968,-4.2254,-4.6515,7.5286,1590683718,N
97,2438957,0.3900,-6.7717,6.6162,50.9600,-17.5700,-41.3700,1002.4974,-3.0859,-5.1549,7.7508,1590683718,N
97,2450371,0.1771,-6.2261,6.2668,35.7700,9.0300,-14.7700,1002.4968,-2.3848,-5.6588,7.6460,1590683718,N
97,2461788,1.8903,-7.2335,9.7723,13.9300,3.8500,-3.5700,1002.4955,-2.4537,2.8686,9.0510,1590683718,N
98,2477016,1.3878,-5.3743,5.5729,20.0900,-17.8500,-17.4300,1002.4933,-2.0239,2.3042,9.3148,1590683718,N
98,2483679,2.0124,-6.3888,6.5707,19.0400,-15.1900,21.7700,1002.4906,-1.2750,1.3218,9.6332,1590683718,N
98,2493004,1.8592,-5.0943,8.1045,18.3400,-5.1800,14.3500,1002.4872,-0.7504,0.3320,9.7723,1590683718,N
98,2496991,1.3615,-6.8076,7.0540,25.7600,13.2300,32.4800,1002.4839,-0.4834,-0.1561,9.7935,1590683718,N
98,2504691,0.3613,-5.2259,7.8461,53.6200,33.1100,18.8300,1002.4813,-0.5976,0.7601,9.7589,1590683719,N
98,2510225,-2.2540,-3.5844,12.2728,23.0300,20.3700,1.2600,1002.4785,-0.6165,-6.2363,7.5431,1590683719,N
98,2510430,-2.2564,-4.0941,8.6070,-16.5200,20.3000,0.2100,1002.4758,-1.1210,-5.5210,8.0270,1590683719,N
97,2510311,-1.2227,-4.3884,8.7601,-32.4800,35.9800,-3.2200,1002.4739,-1.3462,-5.7910,7.7989,1590683719,N
98,2511301,-2.7876,-4.5966,8.0710,-43.1200,28.5600,-2.7300,1002.4713,-1.8037,-5.8909,7.6298,1590683719,N
98,2511309,-2.3498,-4.9747,8.1117,-43.7500,15.7500,4.9000,1002.4686,-2.0390,-6.0160,7.4713,1590683719,N
97,2512924,-3.2136,-6.9535,6.8339,-39.9000,8.2600,21.2100,1002.4675,-2.3853,-6.3132,7.1151,1590683719,N
98,2517103,-2.5268,-5.5083,7.4225,-61.8800,-2.3100,22.1900,1002.4665,-2.5336,-6.4421,6.9462,1590683719,N
98,2523085,-3.5701,-6.6497,6.3936,-116.9000,7.5600,15.3300,1002.4655,-2.8497,-7.1389,6.0898,1590683719,N
97,2526768,-2.8164,-7.0421,4.3119,-189.0000,9.5200,20.3000,1002.4647,-2.9544,-8.2161,4.4652,1590683719,N
98,2524322,-3.9960,-8.6812,-0.8638,-202.3000,-8.7500,53.1300,1002.4639,-3.1301,-9.1257,1.7593,1590683720,N
98,2516430,-5.6160,-8.1069,-3.6658,-197.3300,3.9200,26.1800,1002.4640,-2.3306,-9.4711,-1.0178,1590683720,N
97,2511660,-5.2977,-6.3075,-5.4987,-38.1500,10.2200,17.6400,1002.4649,-1.6376,-9.4285,-2.1428,1590683720,N
98,2511254,-5.6136,-6.3649,-7.0804,-78.8900,9.7300,-16.1700,1002.4665,-0.7266,-9.2350,-3.2182,1590683720,N
98,2516255,-4.8383,-7.2024,-7.3699,6.5100,24.7100,-6.1600,1002.4689,-0.2905,-9.2243,-3.3164,1590683720,N
99,2522336,-3.4026,-5.3312,-5.6542,-54.9500,32.4800,-2.1700,1002.4727,-7.5026,-5.7390,-2.6353,1590683720,N
99,2514821,-2.9910,-4.1898,-6.5922,-45.9200,7.0700,-10.7800,1002.4770,-7.0600,-5.8002,-3.5616,1590683720,N
99,2505706,-6.1950,-5.7691,-7.5948,-3.1500,28.4200,-32.5500,1002.4818,-6.5597,-5.9861,-4.1602,1590683720,N
99,2505532,-2.9264,-5.9414,-8.8869,2.2400,40.7400,-39.1300,1002.4865,-5.6853,-6.3419,-4.8609,1590683720,N
99,2502761,-0.1101,-4.2975,-7.6714,-23.7300,-8.8900,-15.8900,1002.4907,-5.0533,-6.4452,-5.3939,1590683720,N
99,2494130,-1.0433,-4.1922,-8.1547,-20.7900,-34.1600,-10.0100,1002.4961,-4.4933,-6.3691,-5.9511,1590683721,N
98,2487398,-1.3519,-4.7426,-7.9274,-44.0300,-45.2900,27.1600,1002.5008,-4.3438,-5.9829,-6.4426,1590683721,N
99,2484856,-5.4867,-7.5015,-8.4156,79.8700,2.8000,81.3400,1002.5053,-4.7571,-6.0403,-6.0873,1590683721,N
99,2485725,-4.5655,-3.4481,-6.6329,105.3500,21.3500,80.7800,1002.5102,-5.1794,-5.9730,-5.8024,1590683721,N
99,2475354,-5.5992,-3.5342,-6.9416,-1.8200,12.8100,20.4400,1002.5146,-5.3840,-5.3820,-6.1820,1590683721,N
98,2463400,-4.7737,-4.6134,-6.7908,1.6100,7.0000,-21.0000,1002.5191,-5.1608,-5.3735,-6.3767,1590683721,N
98,2457988,-3.8620,-4.6277,-6.1017,-10.5700,26.1100,-39.3400,1002.5232,-4.6933,-5.4792,-6.6424,1590683721,N
99,2453173,-1.5482,-5.2666,-7.5159,-71.6800,56.4900,-40.3900,1002.5264,-3.5009,-5.1793,-7.5558,1590683721,N
99,2436646,-2.3210,-3.8381,-11.0189,-83.5100,9.0300,5.2500,1002.5291,-3.1739,-4.2546,-8.2459,1590683721,N
99,2409289,-2.7087,-2.2923,-8.4227,24.2200,7.0700,4.6200,1002.5305,-3.1702,-4.0005,-8.3735,1590683721,N
99,2404119,-2.4503,-3.5749,-9.0449,40.1800,5.6000,-1.1200,1002.5320,-3.0540,-4.1968,-8.3205,1590683722,N
99,2397146,-0.2297,-3.6084,-7.8867,17.0100,26.8100,-0.2800,1002.5341,-2.5287,-4.2462,-8.4703,1590683722,N
99,2391442,-1.3017,-4.2520,-8.6596,16.7300,27.1600,14.4900,1002.5364,-2.1464,-4.1885,-8.6035,1590683722,N
99,2385231,-0.3159,-5.3791,-9.9206,43.0500,54.7400,17.6400,1002.5382,-1.5926,-4.1440,-8.7442,1590683722,N
99,2381678,1.1725,-5.2427,-9.4588,82.5300,75.1800,32.6900,1002.5396,-0.8683,-4.1337,-8.8504,1590683722,N
99,2383982,1.5960,-5.1565,-6.2812,93.5200,58.2400,78.8200,1002.5413,-0.5356,-4.4973,-8.6981,1590683722,N
99,2397554,-0.8686,-6.8650,-5.1470,31.5000,-26.0400,147.7700,1002.5431,-1.6375,-5.1272,-8.1976,1590683722,N
99,2406714,-5.3623,-6.3482,-3.9505,25.2000,-120.8200,195.7200,1002.5452,-4.4106,-5.4865,-6.8275,1590683722,N
99,2406269,-16.7761,-5.3982,-4.1994,-5.1100,6.7900,72.6600,1002.5457,-5.3200,-5.0279,-6.5260,1590683722,N
100,2523291,-4.9364,-3.2782,-1.6104,37.7300,-175.9800,20.7900,1002.5453,-6.8154,-5.0861,-4.8839,1590683722,N
99,3145895,-8.0231,-3.9601,-2.7805,-180.1100,-68.4600,-74.6900,1002.5449,-7.1614,-4.4966,-4.9664,1590683723,N
99,3521215,-7.2000,-6.3458,0.2728,3.5700,-29.3300,-20.9300,1002.5452,-7.4949,-5.0850,-3.7603,1590683723,N
99,3277504,-6.5180,-4.9723,-1.4859,-24.7800,47.8100,1.3300,1002.5441,-7.3162,-5.1908,-3.9622,1590683723,N
99,3024007,-7.6187,-5.4509,-6.0514,-15.1900,99.9600,1.4700,1002.5430,-6.7205,-5.2462,-4.8459,1590683723,N
99,3003157,-6.6425,-4.2209,-5.8193,-44.5200,64.4700,-38.2900,1002.5411,-6.1872,-5.0888,-5.6562,1590683723,N
99,3014882,-6.7143,-7.0181,-6.7382,-9.0300,43.5400,-42.9100,1002.5394,-5.6089,-5.3765,-5.9837,1590683723,N
99,3225634,-6.7980,-6.5300,-5.8002,-6.5100,29.1900,-40.6700,1002.5384,-5.2553,-5.6086,-6.0907,1590683723,N
99,3210520,-3.9338,-5.7452,-6.4726,-29.1900,34.3700,-28.0000,1002.5381,-4.6727,-5.6204,-6.5382,1590683723,N
99,2996580,-2.4814,-5.5418,-6.6353,-5.2500,28.7000,-17.0100,1002.5385,-4.0282,-5.7359,-6.8588,1590683723,N
99,2722376,-1.6104,-6.0849,-6.3218,3.2900,20.5800,-14.3500,1002.5392,-3.3924,-5.9817,-6.9915,1590683723,N
99,2660429,-1.9645,-6.4152,-7.4584,33.1800,45.6400,0.2100,1002.5391,-2.8543,-6.1066,-7.1227,1590683724,N
99,2764046,-1.1031,-6.6090,-6.4726,6.7900,41.5100,16.3100,1002.5391,-2.3506,-6.0194,-7.3764,1590683724,N
99,2658533,-1.1486,-6.4295,-6.3697,25.8300,21.5600,18.0600,1002.5388,-2.0978,-6.1154,-7.3737,1590683724,N
99,2646551,-2.0554,-6.7430,-6.7454,12.7400,6.3000,11.9700,1002.5385,-2.1232,-6.2294,-7.2702,1590683724,N
99,2681867,-2.4837,-7.0421,-6.8842,21.7700,-0.9100,13.8600,1002.5377,-2.2671,-6.4307,-7.0482,1590683724,N
99,2672805,-2.3593,-6.9870,-6.5563,9.1700,-7.6300,8.4000,1002.5364,-2.3743,-6.5864,-6.8668,1590683724,N
100,2652439,-2.5460,-7.0588,-6.2979,34.9300,-5.8800,5.0400,1002.5355,-2.4791,-6.9021,-6.5104,1590683724,N
100,2620281,-2.7996,-7.0971,-4.8239,7.8400,-28.0700,-1.9600,1002.5342,-2.7296,-7.2484,-6.0151,1590683724,N
99,2602046,-2.9647,-7.1617,-4.0917,-5.3200,-44.6600,-11.3400,1002.5333,-2.9494,-7.5107,-5.5733,1590683724,N
99,2602874,-6.9751,-7.7192,-3.6945,-22.6800,-14.2100,-25.6900,1002.5316,-3.2280,-7.5599,-5.3477,1590683724,N
99,2651352,-3.1178,-6.6520,-4.9460,-5.9500,-24.9900,-12.4600,1002.5305,-3.3043,-7.5822,-5.2690,1590683725,N
99,2618303,-3.3404,-7.2622,-6.2381,-31.3600,13.7200,-9.9400,1002.5284,-3.2094,-7.3419,-5.6539,1590683725,N
99,2620981,-2.3521,-7.4106,-6.0826,3.2200,26.0400,-4.3400,1002.5266,-2.8931,-7.3545,-5.8062,1590683725,N
99,2560713,-1.9406,-7.0612,-6.0802,-13.8600,20.3000,3.1500,1002.5256,-2.6513,-7.2070,-6.0992,1590683725,N
99,2545195,-1.8473,-7.2550,-6.2788,8.1900,20.6500,5.0400,1002.5250,-2.4240,-7.1827,-6.2213,1590683725,N
99,2531599,-2.3378,-6.9224,-5.6255,-8.5400,3.2200,14.7700,1002.5239,-2.5051,-7.0744,-6.3124,1590683725,N
99,2534432,-2.9767,-6.6042,-5.6351,-20.2300,-8.3300,17.3600,1002.5229,-2.7754,-6.8891,-6.4037,1590683725,N
99,2555293,-3.3260,-6.3075,-6.3458,-17.3600,-7.2100,10.7800,1002.5234,-2.9962,-6.6676,-6.5373,1590683725,N
99,2536051,-2.7829,-6.0634,-7.2646,-14.7700,6.0200,0.9800,1002.5236,-2.9282,-6.4300,-6.8008,1590683725,N
100,2525478,-3.0556,-6.5252,-7.6666,2.3100,9.5900,-2.3800,1002.5240,-2.8521,-6.3566,-6.9014,1590683725,N
99,2522316,-2.7996,-6.4845,-7.0851,-5.4600,-1.9600,3.7800,1002.5241,-2.8576,-6.3087,-6.9430,1590683726,N
100,2502754,-3.0963,-5.9246,-6.4989,-7.8400,-15.2600,8.0500,1002.5247,-3.0552,-6.2522,-6.9098,1590683726,N
100,2494630,-3.3236,-5.3791,-6.4845,-11.0600,-9.9400,-2.8000,1002.5258,-3.2024,-6.1386,-6.9449,1590683726,N
100,2485405,-3.4744,-5.7906,-7.0756,-3.1500,7.8400,-17.0800,1002.5273,-3.1364,-6.1141,-6.9965,1590683726,N
100,2473592,-2.7613,-5.7906,-7.1043,-7.0700,12.2500,-29.6800,1002.5296,-2.8707,-6.1506,-7.0782,1590683726,N
100,2452681,-2.1990,-6.0251,-7.0421,-4.4100,9.8000,-33.3900,1002.5319,-2.5418,-6.2915,-7.0800,1590683726,N
100,2439862,-1.7324,-6.4654,-7.2933,-6.1600,8.6100,-27.0200,1002.5344,-2.2043,-6.4205,-7.0774,1590683726,N
100,2432461,-1.3998,-6.7430,-7.2168,-9.6600,4.9000,-13.5800,1002.5352,-1.9483,-6.4859,-7.0927,1590683726,N
100,2410315,-1.3304,-6.2237,-7.3125,-9.6600,1.4700,1.7500,1002.5359,-1.8288,-6.3818,-7.2179,1590683726,N
100,2398329,-1.3950,-5.8816,-8.0447,-8.4000,7.4200,4.6200,1002.5363,-1.7176,-6.1318,-7.4580,1590683726,N
101,2393111,-1.3424,-5.5322,-7.5230,-7.0700,-1.2600,5.6000,1002.5370,-1.6831,-5.9823,-7.5862,1590683727,N
101,2387431,-1.3496,-5.7882,-7.9298,-3.0100,-0.9100,3.0100,1002.5380,-1.6306,-5.9024,-7.6598,1590683727,N
101,2383744,-1.6080,-5.4867,-7.1880,-2.5200,-5.7400,3.8500,1002.5392,-1.6958,-5.8893,-7.6557,1590683727,N
101,2378143,-1.8018,-5.0369,-7.0660,-35.0000,0.1400,-8.3300,1002.5406,-1.7094,-5.6276,-7.8472,1590683727,N
101,2371135,-1.6534,-5.0584,-8.0279,-19.3900,16.8700,-14.2100,1002.5421,-1.5422,-5.3545,-8.0698,1590683727,N
101,2365893,-0.5073,-5.7452,-8.3486,-14.2100,17.9900,-8.6100,1002.5438,-1.1825,-5.1894,-8.2367,1590683727,N
101,2353712,-0.6628,-5.4891,-9.1167,8.9600,-3.9900,3.6400,1002.5442,-1.1094,-5.2629,-8.2001,1590683727,N
101,2349033,-1.1868,-4.7402,-7.8413,7.0000,-11.2700,4.6900,1002.5444,-1.2313,-5.3561,-8.1219,1590683727,N
101,2348787,-1.0504,-5.3408,-7.8197,-5.1800,-0.7700,-4.8300,1002.5461,-1.1877,-5.3998,-8.0995,1590683727,N
101,2350416,-0.9308,-5.0034,-8.2313,-6.0900,6.0200,0.2100,1002.5477,-1.0987,-5.2183,-8.2300,1590683727,N
102,2351026,-0.9308,-5.0345,-8.3079,-5.4600,3.1500,-2.8700,1002.5493,-1.0338,-5.1325,-8.2921,1590683728,N
102,2350625,-0.8542,-5.3671,-8.7027,0.4900,2.3800,2.4500,1002.5502,-0.9823,-5.0805,-8.3303,1590683728,N
102,2346059,-0.8590,-5.7715,-9.1071,42.5600,-19.8100,22.7500,1002.5515,-1.2051,-5.5132,-8.0201,1590683728,N
102,2344451,-1.6343,-6.0921,-8.1332,30.1000,-28.0000,32.5500,1002.5530,-1.5826,-5.8196,-7.7329,1590683728,N
102,2342731,-2.2780,-4.7569,-8.4108,-9.3100,-55.8600,22.6800,1002.5544,-2.1465,-5.7473,-7.6506,1590683728,N
102,2334275,-3.1657,-5.2618,-6.8459,11.7600,-64.4000,13.4400,1002.5553,-2.8169,-6.0037,-7.2243,1590683728,N
102,2328429,-4.4985,-5.2786,-5.5083,52.7100,-45.7800,8.1900,1002.5561,-3.5258,-6.4158,-6.5251,1590683728,N
103,2328607,-5.2187,-6.0993,-5.1374,31.9900,-38.5000,-7.0000,1002.5563,-4.0334,-6.7027,-5.9140,1590683728,N
103,2327587,-4.4674,-5.8098,-5.5011,0.2100,-29.9600,-34.1600,1002.5562,-4.1347,-6.8093,-5.7192,1590683728,N
103,2328651,-4.6804,-6.6999,-3.4241,40.1800,-2.1700,-38.7100,1002.5545,-4.0913,-7.3748,-5.0044,1590683728,N
103,2333193,-5.0824,-8.6022,-5.6160,-2.0300,5.8800,-60.9700,1002.5526,-3.6590,-7.6873,-4.8670,1590683729,N
102,2326320,-2.6728,-8.5639,-3.1513,46.6900,21.0700,-53.1300,1002.5515,-2.9442,-8.3905,-4.1354,1590683729,N
103,2321678,-2.3809,-8.4467,-3.0963,40.5300,31.5700,-44.5900,1002.5495,-2.3218,-8.8392,-3.5566,1590683729,N
103,2321524,-1.9669,-8.5878,-3.0652,14.4900,9.1000,-43.1200,1002.5474,-1.8601,-9.0904,-3.1740,1590683729,N
102,2324709,-0.7131,-8.6118,-2.8738,-12.2500,18.9700,-28.4200,1002.5458,-1.3645,-9.2039,-3.0979,1590683729,N
103,2333027,-0.6389,-8.4395,-3.9458,-11.3400,2.8700,-19.4600,1002.5441,-1.0794,-9.2206,-3.1601,1590683729,N
103,2338271,0.4666,-8.8463,-4.0439,-37.3800,-4.9000,-28.4200,1002.5417,-0.5839,-9.2815,-3.1117,1590683729,N
104,2342966,0.9787,-7.9179,-4.5679,-34.5800,-4.7600,-21.1400,1002.5392,-0.8875,-5.1069,-8.3248,1590683729,N
103,2345853,1.2826,-8.3462,-5.5633,-34.0900,7.6300,-25.6900,1002.5363,-0.3698,-4.4107,-8.7510,1590683729,N
104,2346339,1.4309,-7.9179,-6.0395,5.1100,21.0000,-13.9300,1002.5340,0.2449,-5.4972,-8.1174,1590683729,N
104,2347224,1.3591,-8.5065,-5.8098,-14.2800,6.5100,-17.0800,1002.5323,0.6302,-6.2794,-7.5061,1590683730,N
104,2346357,2.1009,-7.9131,-5.7428,34.3700,26.1100,6.6500,1002.5313,1.0676,-7.4949,-6.2336,1590683730,N
104,2345411,3.8716,-7.4752,-6.2812,40.8800,4.6200,44.8700,1002.5300,1.3013,-8.1244,-5.3359,1590683730,N
104,2341244,2.3378,-8.8917,-5.4748,116.4100,-10.9900,94.5000,1002.5287,0.6530,-9.2593,-3.1637,1590683730,N
104,2339709,-1.0816,-8.0662,-2.5388,152.8800,-6.5800,96.3900,1002.5271,0.0084,-7.9336,-5.7644,1590683730,N
105,2336568,-3.1777,-7.4704,2.2349,178.7100,-14.9800,63.2800,1002.5256,-1.0994,-9.2332,-3.1161,1590683730,N
104,2331434,-4.6445,-5.5944,6.3793,144.4800,33.1100,13.7200,1002.5249,-1.7328,-9.6523,0.0186,1590683730,N
104,2332170,-4.1133,-7.9944,5.7667,37.1000,4.0600,-25.9700,1002.5240,-1.4781,-9.5925,1.4032,1590683730,N
105,2336331,-3.1274,-7.2909,6.3458,20.0900,-10.1500,0.2800,1002.5218,-1.0809,-9.4228,2.4927,1590683730,N
105,2353497,-2.7541,-6.7406,5.0584,5.7400,-4.7600,-7.1400,1002.5185,-0.4532,-9.3078,3.0544,1590683730,N
104,2374694,-2.5842,-7.4417,6.2237,-40.6700,7.3500,3.1500,1002.5145,0.0785,-9.3289,3.0224,1590683731,N
105,2393284,-3.8596,-7.1713,4.8838,-122.7100,10.3600,-24.7800,1002.5107,0.3422,-9.5523,2.1926,1590683731,N
105,2396949,-1.6774,-8.8152,1.4859,-197.0500,-2.1700,-49.3500,1002.5066,0.1173,-9.7920,0.5237,1590683731,N
105,2393936,-1.7755,-9.6742,-1.0361,66.9200,5.1100,2.2400,1002.5023,0.2067,-9.7723,0.7935,1590683731,N
105,2395279,-2.0985,-10.2317,2.6369,115.3600,3.9900,17.8500,1002.4980,2.3092,-9.3853,1.6594,1590683731,N
105,2400943,-2.5986,-8.4610,4.7880,99.0500,8.2600,0.7700,1002.4951,-5.4889,-7.7526,2.4371,1590683731,N
104,2403495,-2.6847,-7.7958,4.8598,63.2100,-3.2900,15.1900,1002.4928,-5.0428,-7.7181,3.3422,1590683731,N
104,2412392,-2.5866,-6.3290,8.3533,-8.6100,6.0900,1.1200,1002.4906,-4.7861,-7.7258,3.6846,1590683731,N
104,2430505,-2.6728,-8.2170,3.7089,-194.3900,10.4300,-11.9700,1002.4882,-3.5104,-8.8370,2.3989,1590683731,N
104,2443374,-2.8570,-8.0016,2.6967,-172.2700,7.6300,-29.4000,1002.4858,-2.1223,-9.5212,1.0068,1590683731,N
104,2470136,-2.2325,-8.3222,-0.2632,-41.7900,6.2300,3.9900,1002.4834,-1.7583,-9.6380,0.4341,1590683732,N
104,2479435,-2.1942,-9.2794,-0.6796,-22.4700,6.7900,-6.4400,1002.4811,-1.1863,-9.7346,-0.0355,1590683732,N
104,2486020,-2.1488,-9.4181,-1.9549,-58.6600,6.5100,-7.2800,1002.4793,1.4609,-9.6604,-0.8444,1590683732,N
104,2486023,-1.7444,-8.9157,-1.9454,-38.4300,4.6200,-4.9000,1002.4779,-5.0674,-8.3183,-1.1394,1590683732,N
104,2475896,-0.6150,-9.9733,-3.1944,57.7500,-42.4200,55.7900,1002.4773,-3.5719,-9.0592,-1.1587,1590683732,N
104,2472312,-0.7513,-9.5809,-2.7470,15.8200,-55.5800,134.9600,1002.4772,-3.9739,-8.8497,-1.4356,1590683732,N
104,2483992,-1.8473,-7.2694,-1.3113,-4.4800,-136.6400,192.3600,1002.4780,-6.5178,-7.2342,-1.1638,1590683732,N
104,2487107,-8.5424,-3.3691,0.0526,-1.7500,-147.0700,223.6500,1002.4786,-5.4368,-8.1539,-0.3531,1590683732,N
104,2486464,-9.5450,-0.4092,6.3123,-34.7900,-240.0300,158.6900,1002.4787,-7.7106,-5.7862,1.7990,1590683732,N
104,2423834,-2.7111,-0.0287,9.4756,-21.7000,-148.5400,52.7800,1002.4782,-7.6455,-4.6844,3.9715,1590683732,N
104,2426640,-10.9328,4.2329,13.1294,67.6200,44.6600,20.0900,1002.4775,-8.1781,-3.3088,4.2827,1590683733,N
104,2437937,-4.0247,-1.3161,5.9557,-13.7900,36.4000,-33.6700,1002.4756,-8.0945,-3.4797,4.3059,1590683733,N
104,2477019,-6.8243,0.7250,9.5665,187.6700,56.7000,18.2000,1002.4728,-8.5997,-1.7499,4.3764,1590683733,N
104,2533525,-7.4297,3.3858,5.9198,72.7300,79.9400,-14.8400,1002.4707,-9.2011,-0.4089,3.3680,1590683733,N
104,2620765,-8.9994,2.8522,3.8812,-8.2600,32.0600,-10.5000,1002.4690,-9.5960,0.2068,2.0109,1590683733,N
104,2678689,-8.2313,1.3376,5.1015,-10.0800,-0.2800,67.0600,1002.4668,-9.7518,0.9111,0.4926,1590683733,N
105,2526517,-5.5561,3.2207,4.6014,-31.1500,-48.2300,26.7400,1002.4648,-9.6815,1.2959,0.8712,1590683733,N
104,2563759,-5.8265,5.1254,4.9149,143.2200,-28.4200,61.8100,1002.4632,-6.7135,2.5984,6.6594,1590683733,N
104,2734250,-5.1278,5.5131,6.4295,26.2500,-25.6200,27.7900,1002.4612,-6.2684,3.4212,6.7211,1590683733,N
105,2856025,-4.7833,0.6700,5.4963,-259.9100,-96.8100,-53.2700,1002.4599,-8.8025,1.9312,3.8673,1590683733,N
104,2416443,-3.1513,1.1892,10.9615,-35.7700,-43.7500,28.4900,1002.4593,-8.2617,1.8826,4.9367,1590683734,N
105,2399869,-3.6921,-0.4642,8.2624,29.2600,16.1700,-14.3500,1002.4595,-8.1809,1.3355,5.2403,1590683734,N
104,2498631,-3.8501,3.6060,8.6764,34.0900,8.6800,3.4300,1002.4588,-4.0931,1.3878,8.8029,1590683734,N
105,2803884,-5.1254,2.7039,8.5280,1.1900,14.8400,-10.9200,1002.4578,-4.4624,1.6334,8.5784,1590683734,N
104,2620746,-3.8716,3.0317,8.2313,78.4700,29.6100,-25.6900,1002.4568,-5.2100,2.4249,7.9464,1590683734,N
104,2583558,-6.6305,1.8520,6.8028,70.0000,43.4000,-58.5900,1002.4565,-6.4609,2.4854,6.9463,1590683734,N
104,2398523,-5.8002,-0.6197,5.0393,-7.0700,-29.8900,-2.6600,1002.4557,-6.3904,2.0500,7.1506,1590683734,N
104,2391142,-4.8263,4.4411,6.8602,66.6400,-19.8100,96.9500,1002.4540,-5.6458,3.3468,7.2866,1590683734,N
104,2431313,-4.6253,14.0794,7.0373,-32.4100,13.0900,14.4900,1002.4532,-5.4006,3.7718,7.2648,1590683734,N
104,2578936,-4.1683,0.7370,7.8437,-22.1900,-10.2200,-13.1600,1002.4523,-5.2910,2.9673,7.7053,1590683734,N
104,2531766,-4.4841,5.5418,5.6399,94.6400,47.4600,-13.3000,1002.4509,-5.8900,4.0658,6.7044,1590683735,N
104,3791245,-5.9533,5.3025,6.0227,56.4900,13.0900,-26.1800,1002.4505,-6.1737,4.4567,6.1800,1590683735,N
104,3223631,-6.7406,6.3027,4.2688,90.3700,17.0800,-0.0700,1002.4501,-6.4089,5.2419,5.2554,1590683735,N
104,2640219,-5.3169,7.5326,5.0824,-12.9500,-30.8000,46.6200,1002.4497,-5.7415,5.8077,5.4292,1590683735,N
104,2412551,-4.5416,7.4512,4.3860,-61.1100,-25.3400,36.5400,1002.4499,-5.2351,6.0131,5.7103,1590683735,N
104,2360577,-4.5296,8.4060,6.6281,-59.5000,-14.2800,17.5700,1002.4503,-4.8905,5.8691,6.1487,1590683735,N
104,2330647,-3.8261,4.6181,7.2335,-133.7700,-22.3300,-7.2800,1002.4507,-4.5329,4.7981,7.2527,1590683735,N
104,2337404,-4.5607,4.3095,8.1787,-146.0900,-59.4300,-13.4400,1002.4500,-3.8622,3.4402,8.3318,1590683735,N
105,2364697,-2.5364,0.0622,8.6764,-108.3600,-23.9400,8.0500,1002.4486,-3.1022,1.7203,9.1426,1590683735,N
105,2378688,-2.2277,1.1342,8.7745,32.4800,6.0200,-21.4200,1002.4473,-3.2052,1.8229,9.0870,1590683735,N
105,2389601,-2.3952,-1.6678,9.6359,12.8800,10.8500,-39.8300,1002.4454,-3.3673,1.0824,9.1466,1590683736,N
105,2383854,-4.0463,3.1298,9.1143,93.5900,59.5700,11.4800,1002.4438,-4.6384,2.2453,8.3435,1590683736,N
105,2369626,-4.3190,1.3735,9.1765,32.6200,41.3000,-20.9300,1002.4415,-5.1918,2.2458,8.0108,1590683736,N
105,2361348,-4.7139,3.4241,7.9848,2.5200,44.3100,-47.1800,1002.4395,-5.6757,2.3387,7.6477,1590683736,N
106,2363057,-6.6090,-0.4546,5.5131,-35.7700,62.4400,-23.1000,1002.4375,-6.2741,1.7003,7.3427,1590683736,N
105,2371594,-8.2576,4.6947,4.7593,58.3100,-27.7200,57.6800,1002.4363,-6.4951,2.8598,6.7680,1590683736,N
106,2467597,-5.8337,1.5912,9.2578,-43.4000,-63.0700,23.3800,1002.4350,-5.5797,2.5101,7.6640,1590683736,N
106,3813037,-4.8933,4.9555,8.1858,-45.0100,-33.3200,-27.3000,1002.4345,-5.0621,2.4814,8.0242,1590683736,N
106,2777374,-3.6682,-0.9619,7.4800,59.7800,6.2300,6.5100,1002.4346,-5.4582,2.4971,7.7552,1590683736,N
106,3976038,-6.0921,7.1952,7.3316,69.8600,24.0800,-19.0400,1002.4338,-6.0195,3.2289,7.0363,1590683736,N
106,4197789,-5.2834,3.1609,6.8267,30.3800,-15.2600,-7.0000,1002.4331,-5.9545,3.3912,7.0153,1590683737,N
106,3126707,-6.6233,5.3049,6.9775,45.0100,-12.2500,30.1700,1002.4323,-5.7972,3.9683,6.8422,1590683737,N
107,2961820,-5.5777,4.2449,7.2885,-92.8200,-56.2100,4.7600,1002.4319,-5.0930,3.4428,7.6406,1590683737,N
106,2363820,-3.6706,3.5055,8.8774,-66.7800,-28.0000,-2.6600,1002.4324,-4.3331,2.9578,8.2853,1590683737,N
107,2330915,-3.1155,0.1866,7.9274,-69.3000,-27.6500,5.2500,1002.4331,-3.6575,2.0133,8.8735,1590683737,N
107,2343385,-3.2853,0.6652,9.9613,-35.6300,-1.6800,9.0300,1002.4327,-3.2713,1.4460,9.1312,1590683737,N
107,2351928,-2.9288,0.8207,9.6263,5.3200,-2.2400,-7.4200,1002.4330,-3.2312,1.3286,9.1632,1590683737,N
107,2357045,-3.4457,1.6630,8.7649,55.5100,34.4400,-19.6700,1002.4321,-4.0925,1.8407,8.7197,1590683737,N
107,2359079,-4.3238,2.1966,9.6885,88.5500,68.6700,18.7600,1002.4307,-5.1077,2.6719,7.9336,1590683737,N
107,2360605,-5.3958,2.5555,8.2911,30.3800,83.8600,-10.2200,1002.4299,-5.8928,2.8250,7.3120,1590683737,N
107,2360251,-6.5803,2.0985,6.4822,23.2400,52.9200,-22.8900,1002.4290,-6.6303,2.7200,6.6941,1590683738,N
107,2357743,-6.7669,1.4644,4.5057,-6.5100,-8.2600,7.4200,1002.4286,-6.6716,2.6203,6.6928,1590683738,N
107,2349890,-6.3864,2.9575,7.2215,3.2200,-27.4400,48.8600,1002.4277,-6.1529,2.9178,7.0568,1590683738,N
107,2338719,-5.1805,5.3169,8.7936,-19.1100,-13.8600,7.3500,1002.4279,-5.7338,3.0200,7.3602,1590683738,N
107,2339504,-5.6495,1.2132,6.2883,-2.0300,-0.1400,-13.5800,1002.4272,-5.8856,2.7513,7.3458,1590683738,N
108,2346166,-5.3599,3.1801,6.7717,62.3700,-14.3500,24.4300,1002.4257,-5.8444,3.3354,7.1336,1590683738,N
107,2345309,-5.8696,4.4841,8.4132,-5.9500,-14.3500,-13.6500,1002.4251,-5.7097,3.2950,7.2604,1590683738,N
108,2344962,-4.0702,2.4861,7.7886,-79.6600,-34.3000,-13.9300,1002.4249,-4.9635,2.6055,8.0465,1590683738,N
108,2341100,-3.7998,3.5725,7.4776,50.5400,20.8600,9.9400,1002.4248,-5.0885,3.2451,7.7296,1590683738,N
108,2339314,-5.3336,4.4722,8.2696,24.4300,21.0700,-7.2100,1002.4241,-5.3399,3.4980,7.4445,1590683738,N
107,2350245,-5.6088,3.8955,7.2287,-17.2900,32.4800,-12.4600,1002.4249,-5.6051,3.4361,7.2764,1590683739,N
108,2391175,-5.7236,2.1320,7.5302,-80.3600,0.3500,-20.5800,1002.4261,-5.4364,2.6003,7.7366,1590683739,N
107,2372361,-5.1685,1.4907,8.0183,-88.1300,9.8000,-19.4600,1002.4270,-5.0052,1.7210,8.2557,1590683739,N
108,2361268,-5.9844,0.1603,8.7506,-135.5200,6.3700,-32.6900,1002.4276,-8.9561,1.2131,3.8062,1590683739,N
107,2359502,-6.2237,-1.5577,7.1904,-140.2100,8.4700,-40.8800,1002.4284,-8.6547,-0.1123,4.6101,1590683739,N
107,2361079,-5.9533,-4.6493,4.9795,3.0800,-10.5000,-3.2200,1002.4289,-8.0113,-1.1766,5.5322,1590683739,N
107,2374746,-6.0778,-0.7298,8.3797,116.5500,-16.1700,19.3200,1002.4298,-7.8117,-0.5315,5.9047,1590683739,N
107,2397730,-5.3743,-2.8570,7.3029,71.4000,-8.2600,-0.3500,1002.4305,-6.1102,-0.7192,7.6367,1590683739,N
107,2561237,-5.6973,1.4429,8.5998,96.0400,9.1700,4.4100,1002.4316,-8.4807,0.0759,4.9237,1590683739,N
107,2547177,-5.8648,-0.4068,7.3603,49.9800,-0.4200,-26.1100,1002.4333,-8.6970,-0.0417,4.5311,1590683739,N
107,2534075,-5.4628,-1.6008,6.9344,-9.4500,-12.8100,-22.1900,1002.4345,-8.9623,-0.5839,3.9378,1590683740,N
107,2563104,-5.6710,1.6869,8.4132,-22.9600,-3.8500,26.9500,1002.4343,-8.5753,-0.0031,4.7576,1590683740,N
106,2607454,-4.5990,1.9741,9.3870,47.0400,-6.5100,28.2800,1002.4340,-6.3414,0.8487,7.4321,1590683740,N
107,2450963,-4.9771,-0.3613,8.7362,-58.8000,19.8800,12.1800,1002.4340,-4.6059,0.2912,8.6528,1590683740,N
107,2401888,-5.4437,-0.1651,8.7769,-51.8700,37.5200,15.1900,1002.4341,-8.9569,0.2492,3.9852,1590683740,N
107,2400302,-5.2953,-0.9595,7.7599,46.2700,48.0900,5.2500,1002.4333,-9.1782,0.1580,3.4505,1590683740,N
107,2495177,-7.0684,0.0072,7.3244,-10.2900,84.3500,45.2200,1002.4326,-9.5693,0.4245,2.1021,1590683740,N
107,2645654,-9.0066,0.8686,5.9486,-64.6800,64.4000,-4.2000,1002.4327,-9.5836,0.3134,2.0559,1590683740,N
107,2724359,-12.6532,1.0624,4.8215,-45.6400,71.6100,-38.9200,1002.4328,-9.4755,-0.0446,2.5264,1590683740,N
107,2981597,-7.8987,-1.3902,3.1633,-46.5500,57.2600,-53.9000,1002.4326,-9.1441,-0.7873,3.4549,1590683740,N
107,3040736,-6.6784,-2.4048,2.2660,-9.8000,59.4300,-45.2900,1002.4327,-9.0923,-1.3928,3.4000,1590683741,N
107,3050560,-6.5563,-3.1274,1.3926,8.5400,57.8200,-35.1400,1002.4327,-9.1529,-1.8625,2.9875,1590683741,N
108,3147048,-17.6519,-6.3051,-0.2489,66.0100,39.2000,-28.2800,1002.4333,-9.1664,-2.0432,2.8236,1590683741,N
108,4108353,-6.5444,-2.4837,1.1509,17.0800,-9.3100,-49.5600,1002.4347,-8.9623,-2.5521,3.0553,1590683741,N
108,2588828,-8.2409,-3.3691,1.6199,182.7700,-8.4700,-42.3500,1002.4365,-8.5665,-2.6374,3.9786,1590683741,N
108,2503122,-4.7282,-9.2985,7.3771,-95.8300,2.1000,-17.2200,1002.4391,-8.2868,-3.5575,3.8526,1590683741,N
108,2434237,-7.8532,-2.9264,3.1681,7.9800,-8.8200,7.1400,1002.4419,-8.3486,-3.4280,3.8367,1590683741,N
108,2451546,-8.4203,-4.0678,3.5055,-4.2700,5.2500,-3.9200,1002.4446,-8.3667,-3.5478,3.6854,1590683741,N
108,2460016,-8.0758,-4.3119,3.6156,7.2800,0.5600,1.5400,1002.4470,-8.3280,-3.6415,3.6816,1590683741,N
108,2459162,-8.0399,-4.5176,3.5916,-2.5900,-1.4700,-0.1400,1002.4493,-8.2685,-3.8003,3.6551,1590683741,N
108,2457892,-8.0255,-4.3597,3.5988,2.5900,-1.3300,1.7500,1002.4507,-8.2294,-3.8829,3.6566,1590683742,N
108,2458059,-8.0351,-4.2473,3.7615,1.5400,-0.3500,1.7500,1002.4517,-8.1962,-3.9315,3.6792,1590683742,N
108,2456888,-8.0518,-4.4052,3.6706,1.5400,-0.3500,-0.5600,1002.4526,-8.1551,-4.0137,3.6817,1590683742,N
108,2454578,-8.0375,-4.2951,3.5749,-3.5700,0.4200,-1.4700,1002.4534,-8.1322,-4.0901,3.6481,1590683742,N
108,2453958,-8.0112,-4.4459,3.6251,2.1000,-0.5600,0.4900,1002.4536,-8.1028,-4.1452,3.6513,1590683742,N
109,2452999,-7.9920,-4.3669,3.6323,0.0700,-0.1400,-0.2100,1002.4545,-8.0806,-4.1899,3.6495,1590683742,N
108,2449774,-8.0279,-4.3358,3.6778,1.1200,-0.5600,0.4200,1002.4546,-8.0652,-4.2103,3.6601,1590683742,N
109,2448699,-7.9753,-4.4172,3.7065,0.9800,-0.2800,-0.1400,1002.4539,-8.0405,-4.2461,3.6731,1590683742,N
109,2447837,-7.9920,-4.3525,3.6682,-1.9600,0.2100,-0.8400,1002.4524,-8.0267,-4.2793,3.6648,1590683742,N
109,2445491,-8.0901,-4.3741,3.6945,0.7700,-0.9100,0.3500,1002.4510,-8.0201,-4.2860,3.6713,1590683742,N
109,2446021,-7.9633,-4.3621,3.6802,-0.4900,0.4200,-0.4900,1002.4501,-8.0098,-4.3061,3.6701,1590683743,N
109,2447024,-8.0949,-4.4435,3.6108,0.7000,-0.2800,0.5600,1002.4490,-8.0110,-4.3179,3.6537,1590683743,N
109,2447432,-8.0518,-4.4195,3.7567,-1.2600,0.2100,-0.9100,1002.4486,-7.9964,-4.3385,3.6612,1590683743,N
109,2445037,-8.0112,-4.3454,3.6514,0.4900,-0.2100,0.2100,1002.4487,-7.9978,-4.3361,3.6612,1590683743,N
109,2444925,-8.0160,-4.3860,3.6634,1.6100,-0.0700,-0.2100,1002.4487,-7.9946,-4.3382,3.6656,1590683743,N
109,2445822,-8.0590,-4.3406,3.7208,0.2100,0.0700,-0.3500,1002.4489,-7.9941,-4.3336,3.6721,1590683743,N
109,2445999,-8.0590,-4.3932,3.6730,-0.4900,-0.3500,-0.0700,1002.4495,-7.9920,-4.3418,3.6671,1590683743,N
109,2446847,-8.0614,-4.3502,3.7041,-0.2800,-0.2100,-0.0700,1002.4501,-7.9924,-4.3391,3.6695,1590683743,N
109,2447213,-8.0542,-4.3884,3.6419,-0.1400,-0.1400,-0.4200,1002.4506,-7.9919,-4.3474,3.6606,1590683743,N
109,2447303,-8.0447,-4.2449,3.7400,-1.1200,0.2800,-0.2800,1002.4514,-7.9976,-4.3299,3.6689,1590683743,N
109,2444029,-8.0495,-4.3932,3.6969,1.0500,-0.2100,-0.3500,1002.4531,-7.9926,-4.3344,3.6745,1590683744,N
109,2442595,-8.0303,-4.3837,3.6132,-0.4900,-0.2100,-1.0500,1002.4548,-7.9892,-4.3515,3.6616,1590683744,N
109,2442995,-8.0734,-4.3645,3.6945,-1.5400,0.2100,-0.7000,1002.4563,-7.9889,-4.3568,3.6560,1590683744,N
109,2443319,-8.0255,-4.3669,3.7041,-1.6800,0.2100,-0.9100,1002.4569,-7.9837,-4.3666,3.6558,1590683744,N
109,2444717,-8.0590,-4.3310,3.6443,-0.4900,0.5600,-0.0700,1002.4573,-7.9940,-4.3566,3.6450,1590683744,N
109,2446639,-7.9920,-4.3789,3.6491,-0.8400,0.7700,-0.7000,1002.4582,-7.9920,-4.3662,3.6380,1590683744,N
109,2448243,-8.0183,-4.3358,3.7232,-1.1200,1.2600,-0.2100,1002.4587,-7.9952,-4.3589,3.6397,1590683744,N
109,2446788,-7.9944,-4.4387,3.5342,-0.6300,0.1400,-0.2800,1002.4586,-7.9948,-4.3792,3.6161,1590683744,N
109,2446367,-8.0255,-4.3334,3.6826,-0.7000,0.1400,-0.7700,1002.4589,-7.9929,-4.3752,3.6251,1590683744,N
109,2445712,-7.9801,-4.4243,3.5773,-0.2800,0.4200,-0.2800,1002.4591,-7.9919,-4.3875,3.6126,1590683744,N
109,2446525,-8.1117,-4.3549,3.6012,1.2600,-0.5600,0.0700,1002.4589,-8.0012,-4.3702,3.6129,1590683745,N
109,2447672,-8.0710,-4.3286,3.6443,0.9100,-0.0700,-0.2100,1002.4586,-8.0060,-4.3557,3.6197,1590683745,N
109,2448610,-8.0686,-4.4650,3.5677,-0.2800,0.2100,-0.6300,1002.4595,-8.0033,-4.3751,3.6022,1590683745,N
109,2448452,-8.0925,-4.3023,3.6371,2.2400,-0.1400,0.8400,1002.4604,-8.0167,-4.3417,3.6128,1590683745,N
109,2445377,-8.0327,-4.5009,3.6012,0.4200,-0.4200,-0.6300,1002.4604,-8.0023,-4.3702,3.6103,1590683745,N
109,2443427,-8.0351,-4.3502,3.6299,0.1400,-0.4900,-0.4900,1002.4608,-8.0003,-4.3683,3.6172,1590683745,N
109,2443157,-8.1356,-4.4650,3.9051,3.0100,-2.0300,-2.4500,1002.4609,-7.9654,-4.3761,3.6840,1590683745,N
109,2476172,-7.8389,-3.3930,4.3932,-47.7400,15.8900,-22.8200,1002.4614,-7.9345,-4.4973,3.6039,1590683745,N
109,2588716,-7.8293,-4.7186,3.6778,12.7400,43.2600,-10.7800,1002.4617,-8.0642,-4.4358,3.3856,1590683745,N
109,2719048,-9.0568,-4.8790,2.3306,-12.9500,73.0800,-27.7900,1002.4616,-8.3508,-4.4273,2.6142,1590683745,N
109,2665797,-7.9131,-5.6495,1.1940,6.0200,81.0600,-67.3400,1002.4619,-8.4217,-4.6639,1.8691,1590683746,N
109,2607589,-6.8794,-6.9488,-0.4451,1.2600,59.2200,-94.3600,1002.4618,-2.0486,-9.3577,2.0994,1590683746,N
109,2523235,-5.0536,-9.0855,-2.3139,-9.3800,23.8000,-77.1400,1002.4619,-0.8443,-9.6746,1.3638,1590683746,N
109,2509118,-3.8501,-8.2816,-1.3352,5.6700,-5.0400,-40.0400,1002.4629,-0.6744,-9.7354,0.9680,1590683746,N
109,2503050,-3.7902,-8.6213,0.1627,16.6600,3.7100,-19.3200,1002.4636,-0.1500,-9.7601,0.9425,1590683746,N
109,2489126,-4.4219,-8.3222,-0.1005,18.8300,8.1200,-8.7500,1002.4647,-0.1120,-9.7671,0.8731,1590683746,N
108,2511354,-4.1085,-9.2889,0.1651,1.9600,-2.8700,-12.2500,1002.4669,0.2420,-9.7754,0.7439,1590683746,N
109,2508345,-3.9721,-8.5567,0.4259,5.6000,3.9200,-3.3600,1002.4678,0.5645,-9.7662,0.6871,1590683746,N
109,2536863,-3.7687,-9.1023,0.1316,1.0500,1.5400,-1.1200,1002.4684,0.7088,-9.7643,0.5716,1590683746,N
108,2524304,-4.0678,-9.2961,-0.3326,35.7700,-2.7300,3.2900,1002.4687,0.6829,-9.7598,0.6714,1590683746,N
108,2506036,-3.7137,-9.4325,0.7633,31.8500,-3.9900,2.7300,1002.4681,-6.7181,-7.1145,0.6492,1590683747,N
108,2474360,-3.9769,-8.9276,1.1055,27.3700,-3.7800,0.9800,1002.4681,-6.1533,-7.5739,0.9715,1590683747,N
108,2455002,-3.6993,-8.5424,1.7707,17.2900,-1.4000,3.2900,1002.4683,-5.5581,-7.9724,1.3110,1590683747,N
108,2451330,-4.4913,-8.7721,2.0387,20.4400,1.2600,-1.6800,1002.4677,-5.3485,-8.0665,1.5797,1590683747,N
108,2444981,-3.9290,-8.7099,1.9669,10.0100,2.6600,-6.3000,1002.4667,-5.0261,-8.2404,1.7332,1590683747,N
108,2445028,-3.7950,-8.6931,2.7039,18.9000,-4.6900,-2.6600,1002.4659,-4.7423,-8.3305,2.0700,1590683747,N
108,2443073,-3.9027,-8.4467,2.8570,7.6300,8.2600,-4.1300,1002.4659,-4.5878,-8.3693,2.2534,1590683747,N
108,2442240,-4.1994,-8.6118,2.9121,31.3600,-1.2600,4.1300,1002.4647,-4.6501,-8.2374,2.5869,1590683747,N
107,2434629,-3.9625,-8.0877,3.3978,15.3300,0.3500,2.2400,1002.4630,-4.5867,-8.1829,2.8588,1590683747,N
108,2434367,-3.9194,-8.1212,3.0461,47.6000,-16.8000,12.1800,1002.4617,-4.6534,-7.9760,3.3016,1590683747,N
107,2433048,-3.6132,-7.3508,4.6229,24.0100,-4.9700,5.9500,1002.4605,-4.5612,-7.8192,3.7717,1590683748,N
107,2440640,-3.7280,-7.9202,4.8168,5.3900,-0.3500,0.4200,1002.4588,-4.3872,-7.8086,3.9936,1590683748,N
107,2449362,-3.4361,-7.5470,4.9699,13.8600,5.4600,8.6800,1002.4568,-4.3172,-7.6941,4.2817,1590683748,N
107,2452957,-4.5344,-7.8221,5.0536,6.5800,9.0300,23.5900,1002.4547,-4.5228,-7.4913,4.4265,1590683748,N
107,2452550,-4.7043,-8.4491,4.4124,-48.3000,12.3200,47.4600,1002.4521,-4.7540,-7.5498,4.0707,1590683748,N
107,2460384,-4.9699,-7.5661,3.0485,-114.8000,-6.9300,74.8300,1002.4496,-4.9937,-7.7831,3.2645,1590683748,N
107,2513474,-5.6255,-7.0995,2.4000,-64.8200,-32.2700,109.2000,1002.4475,-5.5527,-7.5107,2.9877,1590683748,N
107,2685506,-7.0612,-6.5133,2.4981,-42.6300,-63.2100,140.5600,1002.4462,-6.3212,-6.8162,3.1230,1590683748,N
