0,2493040,-3.2231,8.6237,3.0556,-0.0700,0.1400,-0.3500,1002.7791,-3.2372,8.7254,3.0918,1590688432,N
0,2494036,-3.1537,8.6261,2.9647,0.1400,0.1400,-0.0700,1002.7793,-3.2419,8.7242,3.0900,1590688432,N
0,2494043,-3.1753,8.6118,3.0269,0.4900,0.2800,-0.1400,1002.7801,-3.2348,8.7338,3.0703,1590688432,N
0,177412,-3.1920,8.6333,2.9599,0.2100,0.2100,-0.1400,1002.7799,-3.2333,8.7350,3.0687,1590688432,N
0,2147483647,-3.1729,8.6118,2.9647,0.2100,0.2100,-0.3500,1002.7794,-3.2368,8.7387,3.0542,1590688433,N
0,2147483647,-3.1777,8.6261,3.0126,0.1400,0.0700,-0.2100,1002.7790,-3.2361,8.7420,3.0456,1590688433,N
0,1216664,-3.2183,8.6046,2.9719,0.2100,0.1400,-0.2100,1002.7778,-3.2345,8.7425,3.0458,1590688433,N
0,1242245,-3.2040,8.6166,2.9719,0.2100,0.1400,-0.4200,1002.7775,-3.2443,8.7411,3.0396,1590688433,N
0,1859447,-3.2207,8.6166,2.9862,0.0700,0.1400,-0.2800,1002.7769,-3.2482,8.7412,3.0348,1590688433,N
0,1954615,-3.1944,8.6333,3.0078,0.1400,0.0700,-0.1400,1002.7763,-3.2526,8.7404,3.0326,1590688433,N
0,1956095,-3.1872,8.6166,3.0102,-0.2800,0.0700,-0.4200,1002.7751,-3.2534,8.7380,3.0385,1590688433,N
0,1953713,-3.2136,8.6022,2.9910,0.2800,0.1400,-0.2100,1002.7745,-3.2505,8.7388,3.0395,1590688433,N
0,1953867,-3.1729,8.6381,2.9647,0.4900,0.4900,0.0700,1002.7747,-3.2522,8.7402,3.0336,1590688433,N
0,2108495,-3.1609,8.6812,3.0269,0.2100,0.1400,-0.1400,1002.7751,-3.2463,8.7448,3.0267,1590688433,N
0,2131651,-3.1872,8.6716,3.0293,0.2100,0.0700,-0.3500,1002.7755,-3.2369,8.7467,3.0313,1590688434,N
0,2162977,-3.1705,8.6261,3.0078,0.2100,0.1400,0.0700,1002.7763,-3.2316,8.7477,3.0339,1590688434,N
0,2169036,-3.1370,8.6309,3.0389,-0.0700,0.1400,-0.4200,1002.7773,-3.2323,8.7458,3.0386,1590688434,N
0,2170216,-3.1872,8.6022,3.0221,-0.1400,0.1400,-0.3500,1002.7774,-3.2255,8.7448,3.0488,1590688434,N
0,2172093,-3.2183,8.6309,3.0150,-0.1400,0.2100,-0.2100,1002.7779,-3.2304,8.7412,3.0538,1590688434,N
0,2174744,-3.1920,8.6548,3.0508,-0.0700,0.0700,-0.2800,1002.7789,-3.2382,8.7382,3.0544,1590688434,N
0,2177408,-3.1848,8.6094,3.1131,-0.0700,0.1400,-0.1400,1002.7797,-3.2366,8.7368,3.0599,1590688434,N
0,2178962,-3.1920,8.6309,3.0197,0.1400,0.0700,-0.3500,1002.7805,-3.2363,8.7307,3.0776,1590688434,N
0,2179822,-3.1753,8.6644,3.0102,0.3500,0.2100,0.1400,1002.7805,-3.2338,8.7343,3.0698,1590688434,N
0,2179432,-3.2351,8.6046,3.0389,0.3500,-0.1400,-0.2100,1002.7811,-3.2287,8.7388,3.0624,1590688434,N
0,2178141,-3.1705,8.6142,3.0652,0.0700,-0.1400,-0.2100,1002.7809,-3.2393,8.7336,3.0661,1590688435,N
0,2178181,-3.1872,8.6453,3.0293,0.0700,-0.1400,-0.1400,1002.7812,-3.2345,8.7325,3.0744,1590688435,N
0,2177970,-3.2064,8.6501,3.0652,0.1400,-0.0700,-0.1400,1002.7806,-3.2325,8.7342,3.0716,1590688435,N
0,2178300,-3.2207,8.6764,3.0628,0.2100,-0.0700,-0.1400,1002.7795,-3.2331,8.7329,3.0747,1590688435,N
0,2179938,-3.1513,8.6118,3.0102,0.2100,-0.1400,-0.2800,1002.7789,-3.2355,8.7317,3.0756,1590688435,N
0,2181248,-3.2136,8.6261,3.0341,0.2100,-0.1400,-0.2100,1002.7784,-3.2293,8.7354,3.0716,1590688435,N
0,2181157,-3.1801,8.6477,3.0437,0.2100,-0.0700,0.1400,1002.7780,-3.2318,8.7353,3.0694,1590688435,N
0,2180743,-3.1944,8.6285,3.0054,0.3500,-0.0700,-0.1400,1002.7781,-3.2279,8.7370,3.0687,1590688435,N
0,2180505,-3.2040,8.6429,2.9815,0.3500,0.0700,0.3500,1002.7793,-3.2259,8.7407,3.0599,1590688435,N
0,2179016,-3.2136,8.6548,3.0317,0.3500,-0.2100,-0.1400,1002.7803,-3.2287,8.7432,3.0498,1590688435,N
0,2176218,-3.1537,8.6453,3.0843,0.3500,-0.2100,-0.1400,1002.7803,-3.2309,8.7424,3.0501,1590688436,N
0,2174984,-3.2231,8.5854,3.0197,0.1400,-0.2100,-0.2100,1002.7806,-3.2226,8.7407,3.0635,1590688436,N
0,2174341,-3.1825,8.5902,3.0221,0.1400,-0.2100,-0.2100,1002.7806,-3.2333,8.7364,3.0645,1590688436,N
0,2173402,-3.2160,8.6955,3.0317,-0.0700,-0.0700,-0.0700,1002.7806,-3.2343,8.7352,3.0670,1590688436,N
0,2172878,-3.1490,8.6477,3.0150,-0.0700,-0.1400,0.0700,1002.7808,-3.2334,8.7366,3.0639,1590688436,N
0,2173042,-3.2112,8.6142,3.0078,0.1400,-0.1400,0.0700,1002.7814,-3.2230,8.7415,3.0609,1590688436,N
0,2172790,-3.1537,8.5878,3.0245,0.3500,-0.1400,-0.1400,1002.7816,-3.2290,8.7407,3.0567,1590688436,N
0,2172035,-3.1705,8.5615,3.0437,0.3500,-0.0700,-0.0700,1002.7815,-3.2243,8.7418,3.0587,1590688436,N
0,2172031,-3.1585,8.6213,3.0197,0.0700,-0.0700,-0.1400,1002.7812,-3.2263,8.7380,3.0674,1590688436,N
0,2172165,-3.1537,8.5854,3.0221,0.1400,-0.2100,-0.2800,1002.7812,-3.2230,8.7393,3.0670,1590688436,N
0,2170284,-3.1537,8.6405,3.0126,0.1400,-0.0700,-0.2800,1002.7807,-3.2221,8.7390,3.0689,1590688437,N
0,2169531,-3.1705,8.6668,3.0508,-0.2100,-0.0700,0.0700,1002.7801,-3.2167,8.7416,3.0672,1590688437,N
0,2170589,-3.1801,8.5974,3.0796,-0.2100,-0.0700,-0.1400,1002.7794,-3.2147,8.7408,3.0717,1590688437,N
0,2172189,-3.1609,8.6094,3.0269,0.0700,-0.1400,-0.2100,1002.7789,-3.2178,8.7358,3.0825,1590688437,N
0,2173887,-3.2112,8.6477,3.0365,-0.2800,-0.0700,-0.3500,1002.7787,-3.2196,8.7346,3.0841,1590688437,N
0,2176254,-3.2040,8.6477,3.0317,-0.1400,-0.0700,-0.1400,1002.7786,-3.2255,8.7330,3.0822,1590688437,N
0,2179317,-3.1633,8.6381,3.0341,-0.1400,-0.1400,-0.1400,1002.7781,-3.2289,8.7325,3.0802,1590688437,N
0,2181560,-3.1729,8.6213,3.0365,-0.1400,-0.1400,-0.2100,1002.7776,-3.2253,8.7337,3.0807,1590688437,N
0,2182459,-3.1992,8.6094,3.0293,0.0700,0.0700,0.0700,1002.7773,-3.2229,8.7351,3.0791,1590688437,N
0,2182867,-3.1681,8.6357,3.0389,0.2100,0.1400,-0.1400,1002.7781,-3.2279,8.7344,3.0760,1590688437,N
0,2181948,-3.1968,8.6213,3.0891,0.2100,-0.0700,0.0700,1002.7780,-3.2223,8.7370,3.0744,1590688438,N
0,2181340,-3.1848,8.6405,3.0150,-0.0700,-0.0700,-0.1400,1002.7784,-3.2254,8.7320,3.0853,1590688438,N
0,2181543,-3.1968,8.5711,3.0437,0.2800,-0.2100,-0.4200,1002.7790,-3.2267,8.7340,3.0782,1590688438,N
0,2181546,-3.1825,8.6142,3.0891,0.0700,-0.2100,-0.3500,1002.7801,-3.2336,8.7298,3.0829,1590688438,N
0,2182498,-3.1561,8.5974,3.0245,0.0700,-0.0700,-0.2100,1002.7809,-3.2323,8.7271,3.0920,1590688438,N
0,2184696,-3.1968,8.6213,3.0173,-0.0700,-0.2100,-0.4900,1002.7809,-3.2311,8.7278,3.0913,1590688438,N
0,2186065,-3.1729,8.6166,2.9815,0.3500,-0.0700,-0.4900,1002.7806,-3.2352,8.7290,3.0835,1590688438,N
0,2185771,-3.2160,8.6118,3.0126,-0.1400,-0.3500,-0.3500,1002.7803,-3.2350,8.7319,3.0756,1590688438,N
0,2185386,-3.1944,8.6070,3.0365,0.2100,-0.0700,0.1400,1002.7805,-3.2380,8.7329,3.0695,1590688438,N
0,2184720,-3.2255,8.6213,2.9480,0.2800,-0.0700,-0.2100,1002.7806,-3.2388,8.7324,3.0701,1590688438,N
0,2181965,-3.1896,8.6477,3.0485,0.1400,-0.0700,0.0700,1002.7805,-3.2444,8.7363,3.0531,1590688439,N
0,2179662,-3.1418,8.6405,3.0054,0.1400,-0.2800,-0.1400,1002.7798,-3.2397,8.7361,3.0585,1590688439,N
0,2178641,-3.1944,8.6524,3.0700,0.2800,-0.2800,0.0700,1002.7793,-3.2265,8.7424,3.0547,1590688439,N
0,2177571,-3.1442,8.6429,3.0700,0.1400,-0.2800,-0.0700,1002.7789,-3.2250,8.7400,3.0631,1590688439,N
0,2176895,-3.2327,8.6046,3.0437,0.0700,-0.2800,-0.2100,1002.7785,-3.2166,8.7398,3.0724,1590688439,N
0,2176457,-3.1944,8.6022,2.9743,0.0700,-0.0700,-0.1400,1002.7790,-3.2287,8.7346,3.0746,1590688439,N
0,2176128,-3.1274,8.5950,3.0604,0.1400,-0.2100,-0.1400,1002.7796,-3.2325,8.7368,3.0643,1590688439,N
0,2175632,-3.1657,8.6213,2.9384,0.0700,-0.0700,-0.1400,1002.7792,-3.2226,8.7370,3.0739,1590688439,N
0,2175551,-3.1896,8.6189,3.0485,0.0700,-0.0700,-0.2800,1002.7787,-3.2238,8.7424,3.0573,1590688439,N
0,2175489,-3.1609,8.6237,3.0006,0.1400,-0.1400,-0.2800,1002.7784,-3.2265,8.7393,3.0635,1590688439,N
0,2173492,-3.1753,8.6022,3.0030,0.1400,-0.0700,0.0700,1002.7782,-3.2216,8.7428,3.0588,1590688440,N
0,2172448,-3.1346,8.6524,3.0150,-0.2800,-0.0700,-0.1400,1002.7776,-3.2245,8.7412,3.0602,1590688440,N
0,2173121,-3.1801,8.5854,2.9767,-0.2800,0.1400,0.1400,1002.7776,-3.2147,8.7448,3.0602,1590688440,N
0,2173658,-3.1298,8.6333,2.9551,-0.3500,0.1400,0.0700,1002.7778,-3.2207,8.7438,3.0567,1590688440,N
0,2174132,-3.1705,8.5998,3.0197,-0.5600,-0.0700,-0.2800,1002.7787,-3.2168,8.7470,3.0516,1590688440,N
0,2176149,-3.1777,8.6548,3.0173,-0.2800,0.1400,-0.1400,1002.7793,-3.2203,8.7438,3.0572,1590688440,N
0,2179038,-3.1633,8.5807,2.9695,-0.3500,0.1400,-0.1400,1002.7794,-3.2214,8.7429,3.0585,1590688440,N
0,2181921,-3.2183,8.5878,3.0796,-0.1400,-0.0700,-0.2800,1002.7791,-3.2248,8.7430,3.0547,1590688440,N
0,2183543,-3.1753,8.6094,3.0628,-0.1400,0.1400,0.1400,1002.7791,-3.2322,8.7355,3.0683,1590688440,N
0,2184306,-3.1585,8.6812,3.0580,-0.2800,0.0700,-0.1400,1002.7780,-3.2318,8.7322,3.0780,1590688440,N
0,2183010,-3.1490,8.5831,3.0293,-0.0700,0.1400,-0.1400,1002.7771,-3.2237,8.7347,3.0794,1590688441,N
0,2182862,-3.1346,8.6285,3.0197,-0.0700,-0.2100,-0.1400,1002.7769,-3.2209,8.7348,3.0820,1590688441,N
0,2183112,-3.1681,8.6333,2.9862,0.1400,-0.1400,-0.1400,1002.7770,-3.2131,8.7390,3.0782,1590688441,N
0,2183249,-3.2016,8.6118,3.0485,0.1400,-0.2100,-0.0700,1002.7765,-3.2126,8.7428,3.0680,1590688441,N
0,2185116,-3.1968,8.6189,3.0293,0.1400,-0.2100,-0.2800,1002.7756,-3.2199,8.7386,3.0725,1590688441,N
0,2187491,-3.2064,8.5759,3.0054,0.3500,-0.1400,-0.2800,1002.7747,-3.2243,8.7377,3.0704,1590688441,N
0,2189171,-3.1920,8.6620,3.0293,-0.1400,-0.1400,-0.3500,1002.7752,-3.2348,8.7337,3.0705,1590688441,N
0,2189151,-3.1705,8.5998,3.0604,0.4900,-0.1400,0.2100,1002.7761,-3.2285,8.7384,3.0639,1590688441,N
0,2188699,-3.2160,8.6166,3.0556,0.4200,0.1400,0.2100,1002.7766,-3.2237,8.7387,3.0680,1590688441,N
0,2186715,-3.1537,8.5831,3.0604,0.3500,0.1400,0.3500,1002.7767,-3.2264,8.7375,3.0687,1590688441,N
0,2184177,-3.1418,8.6166,2.9958,0.0700,-0.2800,-0.1400,1002.7775,-3.2226,8.7356,3.0781,1590688442,N
0,2182589,-3.2064,8.6381,3.0437,0.1400,-0.2800,0.1400,1002.7787,-3.2144,8.7412,3.0708,1590688442,N
0,2181650,-3.1705,8.5783,2.9934,0.2100,-0.1400,0.1400,1002.7795,-3.2174,8.7403,3.0702,1590688442,N
0,2180915,-3.1585,8.6118,3.0078,0.2100,-0.1400,-0.1400,1002.7804,-3.2201,8.7410,3.0655,1590688442,N
0,2180294,-3.2255,8.6189,3.0341,0.1400,-0.0700,0.0700,1002.7816,-3.2166,8.7433,3.0624,1590688442,N
0,2179980,-3.1322,8.6189,2.9934,0.1400,-0.0700,0.2800,1002.7821,-3.2233,8.7409,3.0623,1590688442,N
0,2179642,-3.1322,8.6094,3.0317,0.1400,-0.2100,0.2800,1002.7824,-3.2122,8.7468,3.0572,1590688442,N
0,2179426,-3.1633,8.6070,3.0054,0.0700,-0.1400,0.1400,1002.7826,-3.2046,8.7481,3.0614,1590688442,N
0,2179325,-3.1561,8.5759,3.0150,0.2800,0.0700,0.1400,1002.7827,-3.2048,8.7495,3.0571,1590688442,N
0,2177476,-3.1801,8.6189,3.0437,-0.0700,0.0700,0.1400,1002.7828,-3.2065,8.7478,3.0601,1590688442,N
0,2176216,-3.2207,8.6716,3.0102,-0.1400,0.0700,-0.1400,1002.7825,-3.2114,8.7439,3.0663,1590688443,N
0,2176374,-3.1418,8.6094,2.9815,-0.1400,0.0700,-0.0700,1002.7826,-3.2197,8.7426,3.0610,1590688443,N
0,2176960,-3.2112,8.6381,3.0269,-0.1400,0.0700,-0.0700,1002.7826,-3.2164,8.7454,3.0567,1590688443,N
0,2176314,-3.1513,8.6333,2.9695,-0.2100,-0.2100,-0.3500,1002.7831,-3.2252,8.7407,3.0607,1590688443,N
0,2176431,-3.2064,8.6189,3.0245,-0.2100,0.0700,-0.1400,1002.7838,-3.2222,8.7444,3.0534,1590688443,N
0,2177163,-3.1825,8.6166,3.0197,0.2100,0.0700,0.1400,1002.7841,-3.2258,8.7431,3.0533,1590688443,N
0,2176387,-3.1872,8.6309,3.0245,-0.2800,0.0700,-0.2100,1002.7847,-3.2289,8.7404,3.0577,1590688443,N
0,2176139,-3.1274,8.6357,3.0341,-0.0700,0.0700,-0.2100,1002.7845,-3.2307,8.7391,3.0597,1590688443,N
0,2176322,-3.1968,8.6118,3.0221,0.1400,0.2100,-0.0700,1002.7840,-3.2194,8.7426,3.0615,1590688443,N
0,2174757,-3.1155,8.6142,3.0413,-0.2800,0.0700,0.0700,1002.7844,-3.2245,8.7399,3.0639,1590688443,N
0,2174670,-3.2040,8.6716,3.0269,-0.4900,0.0700,-0.3500,1002.7850,-3.2172,8.7391,3.0738,1590688444,N
0,2176637,-3.1801,8.6213,3.0580,-0.2800,0.0700,-0.2800,1002.7855,-3.2231,8.7375,3.0722,1590688444,N
0,2179114,-3.1753,8.6429,3.0389,-0.2100,-0.0700,-0.2100,1002.7861,-3.2246,8.7343,3.0795,1590688444,N
0,2181403,-3.1848,8.5974,3.0604,-0.2800,-0.0700,-0.3500,1002.7857,-3.2254,8.7332,3.0818,1590688444,N
0,2184071,-3.1729,8.6189,3.0796,-0.4200,-0.0700,-0.2800,1002.7853,-3.2300,8.7284,3.0907,1590688444,N
0,2186679,-3.2016,8.6142,3.0748,-0.2100,0.0700,-0.0700,1002.7847,-3.2279,8.7267,3.0977,1590688444,N
0,2188582,-3.2136,8.6429,3.0748,-0.1400,-0.0700,-0.2800,1002.7835,-3.2327,8.7232,3.1026,1590688444,N
0,2188897,-3.1777,8.6118,3.0604,-0.0700,-0.0700,-0.1400,1002.7824,-3.2357,8.7217,3.1037,1590688444,N
0,2189044,-3.1418,8.6118,2.9862,-0.0700,-0.1400,-0.2800,1002.7813,-3.2347,8.7216,3.1051,1590688444,N
0,2187755,-3.1872,8.6142,3.0341,-0.2100,-0.0700,-0.1400,1002.7798,-3.2285,8.7278,3.0938,1590688444,N
0,2187200,-3.2016,8.6453,3.0317,-0.2100,-0.1400,-0.1400,1002.7787,-3.2304,8.7275,3.0927,1590688445,N
0,2187000,-3.2040,8.6477,3.0317,0.0700,-0.0700,-0.4200,1002.7783,-3.2342,8.7279,3.0878,1590688445,N
0,2186859,-3.1992,8.6237,3.0030,0.1400,0.1400,-0.1400,1002.7789,-3.2358,8.7295,3.0817,1590688445,N
0,2188135,-3.1872,8.5807,2.9934,0.1400,-0.2100,-0.3500,1002.7794,-3.2387,8.7308,3.0746,1590688445,N
0,2189713,-3.1681,8.5783,3.0030,0.0700,-0.2100,0.0700,1002.7794,-3.2387,8.7328,3.0692,1590688445,N
0,2189726,-3.1298,8.6548,3.0580,-0.0700,0.0700,0.0700,1002.7795,-3.2364,8.7342,3.0674,1590688445,N
0,2189184,-3.2016,8.6429,2.9910,0.1400,0.0700,0.0700,1002.7794,-3.2213,8.7386,3.0709,1590688445,N
0,2188812,-3.1346,8.6022,3.0126,0.3500,0.2800,0.2100,1002.7802,-3.2231,8.7425,3.0580,1590688445,N
0,2187358,-3.2160,8.6142,2.9838,0.3500,0.2800,0.2100,1002.7808,-3.2143,8.7466,3.0553,1590688445,N
0,2184970,-3.1657,8.5950,3.0341,-0.1400,-0.0700,-0.2800,1002.7814,-3.2264,8.7434,3.0518,1590688445,N
0,2183542,-3.1777,8.5831,3.0508,-0.1400,-0.0700,-0.1400,1002.7821,-3.2260,8.7408,3.0598,1590688446,N
0,2182947,-3.1226,8.6357,3.0030,0.0700,-0.0700,-0.1400,1002.7825,-3.2275,8.7373,3.0682,1590688446,N
0,2181901,-3.1801,8.6046,3.0700,-0.2800,-0.0700,-0.2100,1002.7834,-3.2182,8.7410,3.0672,1590688446,N
0,2181490,-3.1777,8.6381,3.0508,-0.2800,0.0700,-0.2100,1002.7838,-3.2222,8.7355,3.0788,1590688446,N
0,2181295,-3.1872,8.6285,2.9982,0.0700,0.0700,0.0700,1002.7842,-3.2199,8.7362,3.0792,1590688446,N
0,2180740,-3.1968,8.6692,2.9719,-0.2100,-0.1400,-0.2100,1002.7839,-3.2240,8.7366,3.0738,1590688446,N
0,2180576,-3.1633,8.6285,3.0485,-0.1400,-0.2100,-0.1400,1002.7842,-3.2262,8.7400,3.0617,1590688446,N
62,2180724,-3.1633,8.6812,2.9958,0.3500,0.2100,0.2800,1002.7849,-3.2190,8.7423,3.0627,1590688446,N
62,2179569,-3.2016,8.5807,3.0365,-0.0700,0.2100,0.2800,1002.7853,-3.2126,8.7476,3.0542,1590688446,N
63,2178202,-3.2064,8.6118,3.0724,-0.2800,-0.0700,-0.1400,1002.7859,-3.2228,8.7407,3.0634,1590688446,N
62,2178218,-3.1657,8.6381,2.9982,0.0700,-0.0700,-0.1400,1002.7858,-3.2279,8.7355,3.0727,1590688447,N
62,2179003,-3.1466,8.5998,3.0556,0.0700,-0.0700,-0.2100,1002.7853,-3.2252,8.7388,3.0662,1590688447,N
62,2178454,-3.1298,8.6357,3.0173,-0.0700,-0.0700,-0.2100,1002.7854,-3.2211,8.7372,3.0752,1590688447,N
62,2178513,-3.1777,8.6524,2.9791,-0.0700,0.0700,0.0700,1002.7861,-3.2117,8.7416,3.0724,1590688447,N
62,2179339,-3.1178,8.5950,3.0197,-0.0700,0.0700,0.2100,1002.7866,-3.2116,8.7457,3.0608,1590688447,N
62,2179927,-3.1920,8.6548,2.9767,-0.2800,-0.0700,-0.3500,1002.7863,-3.2078,8.7449,3.0672,1590688447,N
62,2179663,-3.1585,8.5950,2.9886,-0.1400,-0.0700,-0.0700,1002.7859,-3.2130,8.7464,3.0575,1590688447,N
62,2180896,-3.1777,8.6142,2.9838,0.1400,0.2100,-0.0700,1002.7851,-3.2142,8.7475,3.0531,1590688447,N
62,2181376,-3.1753,8.6022,3.0197,-0.2100,0.2100,-0.0700,1002.7843,-3.2188,8.7469,3.0499,1590688447,N
62,2181764,-3.1992,8.6596,3.0078,-0.3500,-0.0700,-0.2100,1002.7834,-3.2228,8.7430,3.0570,1590688447,N
62,2183205,-3.2088,8.6261,3.0891,-0.0700,-0.0700,-0.2800,1002.7834,-3.2267,8.7423,3.0547,1590688448,N
62,2184406,-3.1633,8.6094,3.0628,-0.2800,-0.0700,-0.2100,1002.7838,-3.2320,8.7346,3.0709,1590688448,N
62,2185674,-3.2255,8.6142,3.0245,-0.3500,-0.0700,-0.2800,1002.7841,-3.2304,8.7315,3.0817,1590688448,N
62,2187943,-3.1466,8.6501,3.0173,-0.2100,0.0700,-0.1400,1002.7845,-3.2397,8.7287,3.0798,1590688448,N
62,2190686,-3.1346,8.6118,3.0508,-0.1400,0.0700,-0.1400,1002.7852,-3.2306,8.7333,3.0762,1590688448,N
62,2192494,-3.2207,8.5926,3.0054,-0.1400,-0.0700,-0.2800,1002.7862,-3.2234,8.7337,3.0826,1590688448,N
62,2192512,-3.1466,8.6094,3.0748,-0.1400,-0.2100,-0.2800,1002.7867,-3.2349,8.7307,3.0791,1590688448,N
62,2192465,-3.1705,8.6118,3.0102,-0.1400,-0.0700,-0.2100,1002.7874,-3.2281,8.7297,3.0889,1590688448,N
62,2190222,-3.1490,8.6357,3.0030,-0.0700,-0.0700,-0.1400,1002.7875,-3.2275,8.7318,3.0836,1590688448,N
62,2188595,-3.1681,8.6022,3.0245,0.2100,-0.0700,0.0700,1002.7880,-3.2193,8.7381,3.0744,1590688448,N
62,2187253,-3.1968,8.5950,2.9886,0.0700,-0.1400,0.1400,1002.7886,-3.2174,8.7392,3.0734,1590688449,N
62,2186137,-3.2088,8.5831,3.0054,0.2100,-0.1400,0.2100,1002.7886,-3.2212,8.7408,3.0646,1590688449,N
62,2185273,-3.1801,8.6429,3.0102,0.1400,-0.0700,0.2100,1002.7893,-3.2273,8.7397,3.0615,1590688449,N
62,2184722,-3.1992,8.6285,3.0341,0.2100,0.0700,0.2100,1002.7899,-3.2234,8.7430,3.0561,1590688449,N
62,2184081,-3.1753,8.6716,3.0078,-0.0700,0.0700,0.2100,1002.7903,-3.2251,8.7415,3.0587,1590688449,N
62,2183739,-3.1035,8.5902,3.0245,0.1400,-0.1400,0.0700,1002.7898,-3.2199,8.7452,3.0535,1590688449,N
62,2183655,-3.1729,8.6237,3.0197,0.3500,0.2100,0.4900,1002.7889,-3.2042,8.7506,3.0545,1590688449,N
62,2182402,-3.2183,8.6261,3.0054,0.2800,-0.0700,0.1400,1002.7880,-3.2045,8.7508,3.0536,1590688449,N
62,2180462,-3.1322,8.6094,3.0054,0.0700,-0.0700,-0.0700,1002.7870,-3.2154,8.7476,3.0514,1590688449,N
62,2179658,-3.1490,8.6213,2.9695,0.1400,-0.0700,-0.0700,1002.7863,-3.2094,8.7497,3.0518,1590688449,N
62,2180099,-3.1872,8.6357,3.0150,-0.0700,-0.0700,0.0700,1002.7853,-3.2072,8.7526,3.0457,1590688450,N
62,2179348,-3.1729,8.6237,3.0365,-0.2100,-0.0700,-0.2100,1002.7845,-3.2133,8.7490,3.0495,1590688450,N
61,2178925,-3.1992,8.6668,3.0221,-0.0700,0.0700,0.1400,1002.7840,-3.2130,8.7472,3.0549,1590688450,N
62,2179103,-3.1466,8.5998,3.0485,-0.1400,0.0700,0.1400,1002.7841,-3.2155,8.7466,3.0542,1590688450,N
61,2178752,-3.2016,8.6285,3.0078,-0.4900,-0.0700,-0.2800,1002.7839,-3.2155,8.7419,3.0677,1590688450,N
62,2178121,-3.1537,8.6261,2.9743,-0.4900,-0.0700,-0.0700,1002.7843,-3.2229,8.7391,3.0677,1590688450,N
62,2178265,-3.1681,8.6142,3.0604,0.2800,0.4200,0.1400,1002.7842,-3.2183,8.7454,3.0546,1590688450,N
61,2177038,-3.1753,8.6189,3.0150,-0.3500,0.2100,0.2800,1002.7849,-3.2165,8.7423,3.0653,1590688450,N
62,2175914,-3.1537,8.5663,2.9862,-0.3500,-0.1400,-0.3500,1002.7864,-3.2209,8.7397,3.0681,1590688450,N
61,2177228,-3.1609,8.5759,2.9934,-0.3500,-0.0700,-0.0700,1002.7875,-3.2222,8.7395,3.0674,1590688450,N
61,2179459,-3.1250,8.6429,3.0293,-0.3500,-0.0700,-0.1400,1002.7881,-3.2245,8.7385,3.0677,1590688451,N
61,2181333,-3.2183,8.6524,3.0317,-0.4200,-0.0700,-0.2800,1002.7881,-3.2163,8.7399,3.0725,1590688451,N
61,2183560,-3.1944,8.5878,3.0389,-0.4200,-0.0700,-0.0700,1002.7881,-3.2244,8.7365,3.0737,1590688451,N
61,2185956,-3.1920,8.6142,3.0078,-0.2100,-0.0700,-0.1400,1002.7871,-3.2301,8.7326,3.0786,1590688451,N
61,2187480,-3.1920,8.6070,3.0437,-0.2800,-0.2100,-0.2800,1002.7860,-3.2343,8.7317,3.0768,1590688451,N
61,2187679,-3.1944,8.6189,3.0197,-0.2100,-0.0700,-0.0700,1002.7851,-3.2358,8.7298,3.0807,1590688451,N
61,2187729,-3.1609,8.6094,3.0748,-0.2100,-0.0700,-0.2100,1002.7847,-3.2383,8.7294,3.0792,1590688451,N
61,2186011,-3.1442,8.6118,3.0508,-0.3500,-0.0700,-0.2100,1002.7844,-3.2342,8.7270,3.0903,1590688451,N
61,2185313,-3.1825,8.5854,3.0532,-0.1400,-0.1400,-0.2100,1002.7842,-3.2272,8.7284,3.0937,1590688451,N
61,2184915,-3.1801,8.5974,3.0245,-0.2800,-0.1400,-0.2100,1002.7838,-3.2306,8.7254,3.0986,1590688451,N
61,2184788,-3.2064,8.6118,3.0437,-0.1400,-0.1400,-0.2100,1002.7838,-3.2323,8.7258,3.0956,1590688452,N
62,2186026,-3.1896,8.6620,3.0078,-0.1400,-0.1400,-0.0700,1002.7835,-3.2361,8.7247,3.0948,1590688452,N
62,2187995,-3.2136,8.6070,3.0317,-0.0700,-0.1400,-0.1400,1002.7835,-3.2342,8.7289,3.0849,1590688452,N
62,2188463,-3.2136,8.6261,3.0126,-0.0700,0.1400,-0.0700,1002.7836,-3.2401,8.7274,3.0829,1590688452,N
62,2187890,-3.1705,8.5831,3.0197,0.0700,0.0700,0.2100,1002.7836,-3.2411,8.7298,3.0749,1590688452,N
62,2187254,-3.1777,8.5926,3.0173,0.2100,0.1400,0.2100,1002.7836,-3.2364,8.7327,3.0720,1590688452,N
62,2184980,-3.2183,8.6189,2.9575,0.0700,0.1400,0.1400,1002.7841,-3.2343,8.7342,3.0698,1590688452,N
62,2182131,-3.2231,8.6309,3.0461,-0.3500,0.0700,-0.0700,1002.7844,-3.2426,8.7350,3.0588,1590688452,N
62,2180591,-3.1513,8.6788,3.0102,-0.3500,0.0700,-0.0700,1002.7844,-3.2475,8.7308,3.0654,1590688452,N
62,2179406,-3.1585,8.5854,3.0604,-0.3500,0.0700,-0.0700,1002.7845,-3.2364,8.7358,3.0630,1590688452,N
62,2178545,-3.1394,8.6261,3.0461,-0.2800,-0.0700,-0.2800,1002.7837,-3.2342,8.7321,3.0759,1590688453,N
62,2178000,-3.1753,8.6381,3.0700,-0.2100,-0.0700,-0.0700,1002.7835,-3.2250,8.7339,3.0805,1590688453,N
62,2177655,-3.2471,8.5807,2.9862,-0.0700,-0.0700,0.3500,1002.7830,-3.2192,8.7345,3.0847,1590688453,N
62,2176959,-3.1681,8.6070,2.9767,-0.0700,0.0700,0.3500,1002.7822,-3.2332,8.7331,3.0741,1590688453,N
62,2176607,-3.1801,8.5496,2.9767,-0.2100,-0.1400,-0.1400,1002.7817,-3.2323,8.7358,3.0672,1590688453,N
62,2176590,-3.1753,8.6859,3.0197,-0.0700,-0.1400,-0.2100,1002.7826,-3.2374,8.7352,3.0638,1590688453,N
62,2174611,-3.1848,8.5831,3.0604,-0.1400,-0.1400,0.0700,1002.7831,-3.2295,8.7390,3.0611,1590688453,N
62,2173442,-3.1585,8.6668,3.0173,-0.2800,-0.1400,-0.0700,1002.7841,-3.2318,8.7338,3.0735,1590688453,N
62,2173968,-3.1107,8.5926,2.9767,-0.0700,0.0700,-0.0700,1002.7843,-3.2248,8.7379,3.0692,1590688453,N
62,2174114,-3.2207,8.6381,3.0054,-0.1400,-0.0700,-0.0700,1002.7842,-3.2154,8.7431,3.0643,1590688453,N
62,2173621,-3.2016,8.5926,3.0413,-0.1400,-0.1400,-0.2100,1002.7835,-3.2255,8.7404,3.0615,1590688454,N
62,2174015,-3.1466,8.6166,3.0700,-0.1400,-0.1400,-0.2100,1002.7828,-3.2321,8.7354,3.0688,1590688454,N
62,2174937,-3.1298,8.6381,2.9791,-0.1400,0.0700,-0.0700,1002.7824,-3.2249,8.7346,3.0786,1590688454,N
62,2174729,-3.1609,8.5735,3.0006,-0.2100,0.0700,-0.1400,1002.7825,-3.2175,8.7404,3.0697,1590688454,N
62,2175165,-3.1872,8.6381,3.0939,-0.2100,0.1400,0.1400,1002.7823,-3.2186,8.7404,3.0685,1590688454,N
61,2176233,-3.1681,8.6261,2.9719,-0.4200,-0.1400,-0.2800,1002.7823,-3.2217,8.7339,3.0840,1590688454,N
62,2175597,-3.1944,8.6142,3.0389,-0.2100,-0.1400,-0.0700,1002.7822,-3.2216,8.7378,3.0729,1590688454,N
62,2176291,-3.1226,8.6213,3.1011,-0.2100,-0.2800,-0.2100,1002.7817,-3.2262,8.7345,3.0773,1590688454,N
62,2177579,-3.1729,8.6501,3.0628,-0.2100,-0.0700,-0.1400,1002.7812,-3.2153,8.7332,3.0925,1590688454,N
62,2178125,-3.1250,8.5807,3.0676,0.0700,0.0700,-0.1400,1002.7810,-3.2142,8.7336,3.0924,1590688454,N
62,2179800,-3.1753,8.6046,3.0532,-0.0700,0.0700,-0.2800,1002.7806,-3.2102,8.7325,3.0997,1590688455,N
62,2182221,-3.2112,8.6788,3.1035,-0.0700,-0.1400,-0.0700,1002.7805,-3.2128,8.7313,3.1004,1590688455,N
62,2184329,-3.1681,8.6285,3.0269,-0.1400,-0.0700,-0.4200,1002.7798,-3.2190,8.7268,3.1065,1590688455,N
62,2184607,-3.1896,8.6189,3.0532,0.1400,-0.0700,-0.4200,1002.7792,-3.2199,8.7292,3.0991,1590688455,N
62,2184820,-3.1681,8.6285,2.9934,0.1400,0.2100,-0.4200,1002.7795,-3.2254,8.7278,3.0972,1590688455,N
62,2183266,-3.1944,8.6309,2.9527,0.1400,0.2100,0.0700,1002.7797,-3.2227,8.7337,3.0832,1590688455,N
62,2181787,-3.1537,8.6453,3.0437,0.1400,0.2100,-0.2800,1002.7808,-3.2288,8.7380,3.0648,1590688455,N
62,2181033,-3.1753,8.5998,3.0150,0.1400,0.0700,-0.1400,1002.7822,-3.2221,8.7397,3.0669,1590688455,N
62,2180131,-3.2088,8.6333,3.0293,0.2100,-0.0700,-0.0700,1002.7838,-3.2226,8.7402,3.0651,1590688455,N
62,2179279,-3.1872,8.5902,3.0293,0.0700,0.0700,-0.1400,1002.7858,-3.2283,8.7383,3.0645,1590688455,N
61,2178706,-3.1633,8.6166,3.0317,0.0700,0.0700,0.0700,1002.7883,-3.2298,8.7371,3.0663,1590688456,N
62,2177568,-3.1729,8.6094,3.0485,0.0700,0.0700,-0.1400,1002.7901,-3.2267,8.7377,3.0679,1590688456,N
62,2176865,-3.1250,8.6094,3.0700,0.0700,-0.1400,-0.1400,1002.7904,-3.2255,8.7363,3.0730,1590688456,N
62,2176513,-3.0963,8.6453,2.9671,0.3500,0.2100,0.4900,1002.7907,-3.2105,8.7404,3.0769,1590688456,N
61,2175232,-3.1490,8.5783,3.0030,0.1400,0.2100,-0.0700,1002.7917,-3.1985,8.7497,3.0631,1590688456,N
62,2172836,-3.1992,8.5998,2.9910,-0.1400,-0.2100,-0.2100,1002.7925,-3.2023,8.7476,3.0652,1590688456,N
62,2171956,-3.1585,8.6836,3.0293,-0.0700,-0.1400,-0.1400,1002.7930,-3.2129,8.7450,3.0614,1590688456,N
62,2172749,-3.1633,8.5854,3.0724,-0.0700,-0.0700,-0.1400,1002.7933,-3.2085,8.7467,3.0613,1590688456,N
62,2172064,-3.2231,8.5783,3.0245,-0.0700,0.0700,-0.1400,1002.7928,-3.2112,8.7412,3.0741,1590688456,N
61,2171524,-3.2112,8.6453,3.0939,-0.2100,-0.0700,0.0700,1002.7918,-3.2240,8.7359,3.0757,1590688456,N
62,2171807,-3.2279,8.5926,3.0556,-0.2100,-0.1400,0.0700,1002.7904,-3.2264,8.7313,3.0862,1590688457,N
62,2171428,-3.1705,8.6237,3.0293,-0.2800,-0.1400,-0.4200,1002.7897,-3.2393,8.7244,3.0923,1590688457,N
62,2170723,-3.1896,8.6548,3.0078,-0.0700,-0.1400,-0.4200,1002.7891,-3.2373,8.7259,3.0902,1590688457,N
62,2170888,-3.1418,8.6405,3.0317,0.5600,0.2100,0.1400,1002.7889,-3.2324,8.7331,3.0748,1590688457,N
61,2169770,-3.2088,8.6357,3.0054,-0.2800,0.2100,0.3500,1002.7881,-3.2212,8.7373,3.0746,1590688457,N
62,2168200,-3.1394,8.6237,2.9958,-0.4200,-0.0700,-0.2800,1002.7875,-3.2298,8.7350,3.0723,1590688457,N
62,2169124,-3.2327,8.6309,3.0317,-0.2800,-0.0700,-0.1400,1002.7871,-3.2235,8.7384,3.0693,1590688457,N
62,2171562,-3.1992,8.6357,2.9719,-0.2100,-0.0700,-0.1400,1002.7862,-3.2339,8.7341,3.0706,1590688457,N
62,2173801,-3.1657,8.6094,3.0173,-0.4900,-0.0700,-0.1400,1002.7865,-3.2381,8.7351,3.0632,1590688457,N
62,2176416,-3.1585,8.5735,3.0293,-0.1400,-0.0700,-0.1400,1002.7872,-3.2348,8.7356,3.0651,1590688457,N
62,2179176,-3.1801,8.5974,2.9886,-0.2800,-0.1400,-0.2100,1002.7875,-3.2336,8.7335,3.0725,1590688458,N
62,2181321,-3.1585,8.5831,3.0461,-0.2800,-0.4200,-0.2100,1002.7869,-3.2351,8.7338,3.0700,1590688458,N
62,2181593,-3.1801,8.6261,3.0508,-0.1400,-0.1400,0.1400,1002.7861,-3.2297,8.7334,3.0768,1590688458,N
62,2181980,-3.1705,8.6237,2.9862,-0.1400,-0.1400,0.0700,1002.7861,-3.2271,8.7331,3.0805,1590688458,N
62,2180518,-3.1394,8.5711,3.0437,0.0700,-0.1400,0.0700,1002.7869,-3.2242,8.7378,3.0703,1590688458,N
62,2179273,-3.1777,8.6070,3.0054,-0.0700,-0.1400,-0.0700,1002.7866,-3.2196,8.7368,3.0778,1590688458,N
62,2179062,-3.1370,8.6429,3.0293,0.2100,-0.0700,-0.2100,1002.7870,-3.2220,8.7380,3.0720,1590688458,N
62,2178518,-3.2064,8.5807,3.0126,0.0700,-0.1400,-0.3500,1002.7871,-3.2152,8.7404,3.0723,1590688458,N
62,2179567,-3.1801,8.5950,3.0150,0.0700,-0.0700,-0.3500,1002.7877,-3.2266,8.7365,3.0713,1590688458,N
62,2181332,-3.1657,8.6261,3.0748,0.1400,-0.1400,-0.3500,1002.7877,-3.2296,8.7357,3.0703,1590688458,N
62,2181801,-3.1609,8.6142,3.0102,0.2100,-0.1400,0.1400,1002.7885,-3.2223,8.7361,3.0770,1590688459,N
62,2181190,-3.1872,8.6046,3.0245,0.2100,-0.2100,0.1400,1002.7885,-3.2174,8.7398,3.0715,1590688459,N
62,2180721,-3.1418,8.6429,3.0724,0.2800,0.0700,0.1400,1002.7880,-3.2191,8.7403,3.0684,1590688459,N
63,2179010,-3.1561,8.6022,3.0078,0.0700,0.0700,0.1400,1002.7882,-3.2097,8.7414,3.0751,1590688459,N
63,2176143,-3.1872,8.6309,2.9862,-0.0700,-0.0700,-0.0700,1002.7888,-3.2102,8.7420,3.0727,1590688459,N
62,2174307,-3.1777,8.5950,3.0532,-0.0700,-0.0700,0.0700,1002.7883,-3.2139,8.7437,3.0642,1590688459,N
62,2173367,-3.2088,8.6429,3.0150,-0.0700,-0.1400,0.0700,1002.7880,-3.2157,8.7403,3.0721,1590688459,N
62,2172184,-3.1872,8.6094,3.0221,-0.2100,-0.1400,-0.0700,1002.7888,-3.2222,8.7387,3.0695,1590688459,N
63,2171647,-3.1490,8.6429,3.0197,-0.1400,-0.1400,-0.0700,1002.7894,-3.2252,8.7373,3.0706,1590688459,N
63,2171443,-3.1657,8.6070,3.1035,0.0700,0.0700,0.2800,1002.7901,-3.2158,8.7421,3.0667,1590688459,N
62,2170659,-3.1466,8.6548,3.0269,-0.2800,-0.1400,-0.1400,1002.7897,-3.2157,8.7357,3.0850,1590688460,N
62,2170406,-3.1274,8.6261,3.0197,-0.2800,-0.0700,0.2100,1002.7894,-3.2082,8.7394,3.0822,1590688460,N
62,2171259,-3.1825,8.6405,3.0245,-0.2800,0.1400,-0.1400,1002.7891,-3.2040,8.7414,3.0811,1590688460,N
63,2171675,-3.1705,8.6333,3.0173,-0.2100,0.0700,0.1400,1002.7885,-3.2071,8.7414,3.0779,1590688460,N
62,2172328,-3.1298,8.5974,3.0197,-0.1400,0.0700,-0.2800,1002.7876,-3.2109,8.7408,3.0755,1590688460,N
62,2174587,-3.1896,8.6261,3.0197,-0.0700,0.0700,-0.4200,1002.7866,-3.2096,8.7409,3.0767,1590688460,N
62,2177162,-3.1537,8.6070,3.0461,-0.2800,0.1400,-0.0700,1002.7860,-3.2158,8.7391,3.0752,1590688460,N
62,2179290,-3.1059,8.5831,3.0461,-0.4200,0.1400,-0.4200,1002.7852,-3.2181,8.7356,3.0828,1590688460,N
63,2181744,-3.1466,8.6333,3.0532,-0.2800,0.1400,-0.1400,1002.7853,-3.2100,8.7363,3.0893,1590688460,N
62,2184198,-3.1537,8.5926,3.0173,-0.1400,0.1400,0.0700,1002.7850,-3.2057,8.7375,3.0904,1590688460,N
62,2185241,-3.1513,8.5854,3.0556,0.1400,0.1400,0.0700,1002.7850,-3.2057,8.7395,3.0847,1590688461,N
62,2185399,-3.1178,8.6501,2.9719,0.2800,0.1400,0.0700,1002.7852,-3.2045,8.7393,3.0865,1590688461,N
62,2184805,-3.1585,8.5639,3.0820,0.2100,0.1400,-0.2100,1002.7858,-3.1979,8.7472,3.0710,1590688461,N
62,2182777,-3.1992,8.5735,3.0556,-0.0700,-0.0700,-0.3500,1002.7853,-3.2041,8.7396,3.0860,1590688461,N
62,2182234,-3.1155,8.6166,3.0389,-0.0700,-0.0700,-0.2100,1002.7853,-3.2154,8.7335,3.0914,1590688461,N
62,2181855,-3.1801,8.6022,3.0293,-0.0700,-0.0700,-0.3500,1002.7853,-3.2080,8.7359,3.0924,1590688461,N
62,2182446,-3.2136,8.6094,3.0652,0.0700,-0.0700,-0.3500,1002.7849,-3.2145,8.7344,3.0898,1590688461,N
63,2184023,-3.1992,8.6166,3.0461,0.3500,-0.0700,-0.2800,1002.7848,-3.2230,8.7309,3.0908,1590688461,N
62,2185027,-3.1250,8.6405,3.0078,0.1400,-0.1400,0.2800,1002.7852,-3.2234,8.7318,3.0881,1590688461,N
62,2184629,-3.1825,8.6046,3.0269,0.1400,-0.2100,-0.2100,1002.7861,-3.2132,8.7381,3.0809,1590688461,N
63,2184175,-3.1753,8.5950,3.0102,0.2800,0.0700,0.2100,1002.7864,-3.2143,8.7393,3.0762,1590688462,N
62,2182995,-3.1825,8.6261,3.0173,0.0700,-0.0700,-0.0700,1002.7862,-3.2173,8.7393,3.0730,1590688462,N
63,2179740,-3.1490,8.6764,2.9934,-0.0700,-0.1400,-0.0700,1002.7864,-3.2192,8.7393,3.0711,1590688462,N
63,2177245,-3.1705,8.5711,3.0389,-0.0700,-0.1400,-0.2800,1002.7870,-3.2139,8.7438,3.0637,1590688462,N
63,2175993,-3.1442,8.5926,3.0365,0.0700,-0.0700,-0.1400,1002.7878,-3.2175,8.7403,3.0700,1590688462,N
63,2174887,-3.2183,8.6333,3.0030,-0.0700,-0.2100,-0.1400,1002.7891,-3.2143,8.7396,3.0753,1590688462,N
62,2174151,-3.1370,8.6333,2.9767,0.0700,0.0700,-0.1400,1002.7900,-3.2239,8.7388,3.0677,1590688462,N
63,2173574,-3.1466,8.6261,2.9815,0.2100,-0.1400,-0.1400,1002.7900,-3.2163,8.7450,3.0580,1590688462,N
63,2172923,-3.2088,8.6237,3.0030,0.2100,-0.1400,-0.2100,1002.7902,-3.2129,8.7485,3.0515,1590688462,N
63,2172609,-3.2112,8.6285,3.0867,-0.2100,-0.0700,-0.0700,1002.7905,-3.2215,8.7452,3.0518,1590688462,N
63,2172562,-3.1466,8.6333,3.0006,0.2800,0.0700,-0.1400,1002.7902,-3.2263,8.7396,3.0630,1590688463,N
62,2170312,-3.1466,8.6333,2.9216,-0.1400,0.0700,0.0700,1002.7900,-3.2196,8.7431,3.0599,1590688463,N
63,2168530,-3.1753,8.5974,3.0150,-0.1400,-0.1400,-0.2800,1002.7906,-3.2181,8.7490,3.0445,1590688463,N
63,2168939,-3.1370,8.6046,3.0006,-0.0700,0.0700,0.1400,1002.7902,-3.2193,8.7472,3.0484,1590688463,N
63,2170204,-3.1801,8.6237,3.0054,-0.2800,-0.1400,-0.4200,1002.7890,-3.2176,8.7461,3.0532,1590688463,N
63,2171659,-3.1825,8.5998,3.0006,-0.4200,-0.1400,-0.2100,1002.7883,-3.2217,8.7435,3.0564,1590688463,N
62,2174045,-3.1848,8.6070,3.0078,-0.3500,0.1400,-0.0700,1002.7877,-3.2265,8.7413,3.0576,1590688463,N
63,2177354,-3.1537,8.6022,3.0054,-0.2100,0.1400,-0.0700,1002.7882,-3.2296,8.7399,3.0584,1590688463,N
62,2179982,-3.1705,8.5759,3.0317,-0.1400,0.1400,-0.1400,1002.7883,-3.2272,8.7406,3.0591,1590688463,N
63,2181812,-3.1466,8.5950,2.9982,0.1400,0.2800,0.0700,1002.7883,-3.2271,8.7394,3.0625,1590688463,N
62,2182055,-3.1801,8.6094,3.0580,0.0700,-0.1400,0.0700,1002.7882,-3.2213,8.7424,3.0602,1590688464,N
62,2180266,-3.1585,8.6548,3.0245,0.0700,-0.1400,-0.2800,1002.7870,-3.2233,8.7386,3.0689,1590688464,N
63,2179802,-3.1825,8.6094,3.0341,-0.1400,-0.1400,-0.2100,1002.7861,-3.2192,8.7401,3.0690,1590688464,N
62,2179350,-3.1777,8.5687,3.0652,-0.1400,0.0700,-0.3500,1002.7849,-3.2244,8.7368,3.0727,1590688464,N
62,2180079,-3.1633,8.6453,3.0604,-0.4900,0.0700,-0.2100,1002.7838,-3.2296,8.7302,3.0861,1590688464,N
62,2182488,-3.1896,8.6333,2.9647,-0.3500,0.0700,-0.2800,1002.7836,-3.2268,8.7295,3.0910,1590688464,N
63,2185162,-3.1801,8.6261,3.0485,-0.0700,0.0700,-0.2800,1002.7828,-3.2311,8.7335,3.0753,1590688464,N
62,2186957,-3.1920,8.6070,3.0652,0.9800,-0.6300,-0.9800,1002.7827,-3.2313,8.7336,3.0747,1590688464,N
62,2186620,-3.1848,8.5783,3.0269,0.3500,-0.0700,0.4900,1002.7836,-3.2268,8.7345,3.0770,1590688464,N
62,2185590,-3.1681,8.5711,3.0987,0.2100,-0.2100,0.4900,1002.7844,-3.2244,8.7360,3.0750,1590688464,N
62,2182660,-3.5246,10.0307,2.9336,22.7500,2.1000,-4.6900,1002.7853,-3.1894,8.8016,2.9207,1590688465,N
63,2179069,-4.0630,12.3350,2.6871,-88.6200,-27.6500,-106.8200,1002.7861,-4.2302,7.8807,4.0212,1590688465,N
62,2181055,-4.3789,6.2596,4.9819,-53.6200,11.5500,-118.4400,1002.7868,-5.1739,7.1079,4.3450,1590688465,N
63,2198713,-5.7188,8.6285,4.8550,119.2800,55.7200,-174.2300,1002.7879,-6.1654,6.6447,3.7424,1590688465,N
62,2230477,-6.8913,2.8331,1.2419,177.1000,21.6300,-235.4800,1002.7892,-7.1487,6.0756,2.8556,1590688465,N
62,2240575,-7.4178,1.4979,3.6826,24.3600,-43.6800,-208.8100,1002.7896,-8.2135,4.3383,3.1447,1590688465,N
63,2237244,-6.4319,-5.2331,2.7613,-35.2100,-55.4400,-191.3100,1002.7890,-8.8082,2.0974,3.7666,1590688465,N
62,2237970,-7.0923,-5.9127,4.2209,2.0300,-36.1900,-103.8800,1002.7887,-9.0375,0.3514,3.7908,1590688465,N
63,2239737,-6.7430,-9.0449,1.9502,-78.6100,-8.0500,-63.9800,1002.7894,-9.1685,-1.7746,2.9932,1590688465,N
62,2241925,-5.4030,-6.6305,1.0385,-37.1700,-22.6800,-56.6300,1002.7909,-9.0632,-3.0529,2.1698,1590688465,N
63,2245316,-4.6421,-8.0040,1.0361,-41.0900,-22.0500,-72.1000,1002.7925,-8.8048,-4.1626,1.1481,1590688466,N
63,2245795,-2.1464,-8.6644,1.4381,15.8200,-0.8400,-54.8100,1002.7941,-8.4847,-4.9044,-0.3563,1590688466,N
63,2250142,-1.0839,-9.7220,1.3711,28.7000,-24.5700,-13.2300,1002.7958,-8.2134,-5.3320,-0.5300,1590688466,N
63,2250484,-2.9408,-8.2505,4.0463,8.4700,-4.7600,40.2500,1002.7969,-4.8936,-4.3898,7.2768,1590688466,N
63,2258108,-2.2421,-7.8652,1.9932,28.7700,32.9000,92.5400,1002.7973,-5.2015,-4.6172,6.9135,1590688466,N
63,2268276,-3.1633,-6.1543,3.9529,79.1700,8.2600,154.1400,1002.7974,-5.7610,-3.8160,6.9584,1590688466,N
64,2273318,-18.6425,-3.3763,0.1603,59.0100,28.5600,47.8800,1002.7971,-5.9150,-3.6320,6.9276,1590688466,N
63,2257025,-6.7190,-3.9218,2.8857,-44.5200,38.5000,70.1400,1002.7979,-7.1239,-3.7067,5.6286,1590688466,N
64,2257523,-6.5133,-3.5246,1.3783,-82.2500,-23.3100,12.4600,1002.7975,-7.3016,-4.1684,5.0480,1590688466,N
64,2265842,-7.9848,-4.3071,2.5890,58.9400,-6.2300,6.0200,1002.7980,-7.4561,-3.9847,4.9699,1590688466,N
64,2276949,-8.2193,-4.4626,3.2806,-5.1800,-9.1000,-8.7500,1002.7978,-7.5957,-4.2217,4.5446,1590688467,N
64,2284470,-8.3079,-4.1874,3.5174,-3.6400,-3.5700,-5.0400,1002.7971,-7.6796,-4.3306,4.2941,1590688467,N
64,2291449,-8.3390,-4.4363,2.8355,3.9900,0.6300,-2.8000,1002.7966,-7.7776,-4.3021,4.1439,1590688467,N
64,2295923,-8.3222,-4.0822,3.3093,1.3300,1.8200,-2.8700,1002.7960,-7.8914,-4.3511,3.8683,1590688467,N
64,2298613,-8.2624,-3.9936,3.6802,-53.2000,20.7200,-36.6100,1002.7956,-7.8729,-4.7009,3.4770,1590688467,N
64,2299468,-8.9180,-4.1252,1.8664,-41.4400,62.0200,-52.3600,1002.7948,-7.9535,-4.8749,3.0245,1590688467,N
64,2292671,-7.2718,-6.7502,1.0911,47.1100,34.0200,-99.2600,1002.7949,-7.8341,-5.1472,2.8816,1590688467,N
64,2287168,-4.5416,-8.5902,-0.2417,-59.4300,-16.8700,-104.0200,1002.7948,-7.0486,-6.3499,2.4832,1590688467,N
64,2287540,-3.1155,-9.5737,-0.1149,23.0300,-43.8900,-17.2200,1002.7943,-6.6184,-6.8613,2.2999,1590688467,N
64,2288096,-5.3288,-7.0110,2.1416,51.7300,-10.3600,10.5700,1002.7956,-6.5840,-6.9502,2.1252,1590688467,N
64,2285210,-4.7641,-8.2265,3.5677,-21.6300,11.2700,-12.3200,1002.7971,-6.3351,-7.2087,2.0177,1590688468,N
64,2282863,-4.7163,-8.1619,0.5934,-35.0000,5.3200,-6.5100,1002.7982,-5.7216,-7.6794,2.1120,1590688468,N
65,2282551,-4.1922,-7.7408,0.4714,25.1300,7.2800,9.8000,1002.7993,-5.9404,-7.5599,1.9312,1590688468,N
64,2281837,-2.9767,-8.1811,2.4024,20.5100,-13.7200,76.9300,1002.7999,-6.4732,-7.1002,1.9635,1590688468,N
64,2277000,-9.8082,-10.7701,7.6594,-22.1900,-26.1100,126.0000,1002.8002,-6.3488,-7.1307,2.2398,1590688468,N
64,2270707,-3.3212,-3.5198,0.7346,-45.3600,-28.6300,84.4200,1002.8014,-6.5590,-6.8764,2.4217,1590688468,N
65,2267076,-10.0977,-3.7304,1.3041,12.4600,25.2700,22.8200,1002.8030,-6.8989,-6.5934,2.2590,1590688468,N
65,2262276,-8.2840,-5.9677,1.5338,8.4700,22.1900,-30.3100,1002.8039,-7.1625,-6.3594,2.1044,1590688468,N
65,2271905,-7.8867,-4.8742,1.6893,24.6400,6.3700,-39.4800,1002.8041,-7.2100,-6.3189,2.0634,1590688468,N
65,2273694,-7.0181,-8.0351,1.4118,-24.5000,-9.3100,-40.4600,1002.8030,-7.0077,-6.5736,1.9621,1590688468,N
65,2273524,-6.5324,-8.7793,-0.4379,31.9900,-2.6600,21.7700,1002.8016,-7.1794,-6.3769,1.9903,1590688469,N
65,2273054,-7.3053,-6.2429,1.8808,47.8100,-41.0900,42.7000,1002.8013,-7.3441,-6.1209,2.1840,1590688469,N
66,2269725,-7.9705,-5.7691,4.5823,44.5900,-70.6300,44.6600,1002.8012,-7.3487,-5.9063,2.6986,1590688469,N
65,2272916,-1.9645,-3.5988,5.6040,16.5900,-31.1500,73.9200,1002.8018,-7.6613,-5.2788,3.0999,1590688469,N
66,2280439,-14.2469,-3.8094,8.3868,132.7200,211.5400,112.8400,1002.8030,-8.9993,-3.1718,2.2635,1590688469,N
66,2288439,-9.4062,4.2209,-0.0670,-90.3000,52.9200,10.8500,1002.8029,-9.1771,-2.9678,1.7727,1590688469,N
66,2289399,-9.0281,-1.0433,2.3210,0.7000,-21.5600,5.9500,1002.8013,-9.4999,-1.7883,1.6505,1590688469,N
66,2290745,-9.2219,-2.6345,3.7352,-16.8700,-30.7300,-22.1200,1002.7998,-9.3607,-1.9864,2.1451,1590688469,N
66,2293887,-9.5210,-2.3545,2.2588,-7.5600,3.0100,-1.1900,1002.7990,-9.2707,-2.1263,2.3880,1590688469,N
66,2294051,-9.1143,-1.4955,3.3308,18.4800,-7.4200,8.0500,1002.7988,-9.2731,-2.0804,2.4189,1590688469,N
66,2294708,-9.1023,-1.4333,3.4600,-0.1400,-3.7100,1.4000,1002.7985,-9.2435,-1.9720,2.6154,1590688470,N
66,2295541,-9.1358,-1.3663,3.3691,1.3300,-0.2100,-2.4500,1002.7981,-9.2096,-1.8886,2.7903,1590688470,N
66,2296807,-9.0808,-1.7372,3.2088,-2.8000,0.5600,-3.7800,1002.7972,-9.1862,-1.8219,2.9094,1590688470,N
67,2297825,-9.1693,-1.4931,3.2399,-0.6300,3.0100,-6.4400,1002.7965,-9.1566,-1.8537,2.9817,1590688470,N
67,2298416,-9.1837,-1.6582,3.5701,-3.0800,12.0400,-21.1400,1002.7972,-9.1167,-1.9325,3.0530,1590688470,N
67,2300056,-9.6263,-0.7155,3.2064,50.6100,32.6900,-45.5700,1002.7972,-8.9705,-2.0716,3.3776,1590688470,N
67,2301576,-9.5450,-1.1581,2.5555,12.2500,19.2500,-102.3400,1002.7968,-8.6267,-2.4855,3.9462,1590688470,N
68,2295173,-8.4754,-5.4126,2.2373,-55.7900,-9.9400,-162.6100,1002.7964,-8.1517,-3.4936,4.1851,1590688470,N
67,2283625,-6.4798,-7.9729,1.4070,26.2500,-35.1400,-175.4900,1002.7955,-7.2621,-4.8288,4.4850,1590688470,N
67,2276885,-1.5793,-9.8824,1.5505,-4.9000,-59.6400,-116.1300,1002.7949,-6.3710,-6.0543,4.3504,1590688470,N
67,2276514,-0.2991,-9.7771,2.0530,-23.9400,-48.0900,-36.8900,1002.7938,-5.1028,-7.2201,4.2429,1590688471,N
67,2273971,-1.6750,-9.4660,1.7252,65.3800,-22.1200,-25.5500,1002.7927,-3.8512,-7.7139,4.6727,1590688471,N
68,2272084,-0.7298,-7.4201,6.4869,93.2400,-8.7500,-15.7500,1002.7922,-3.5533,-7.7654,4.8210,1590688471,N
68,2270890,-1.3591,-7.6355,5.9605,56.2800,4.8300,-11.1300,1002.7922,-3.0062,-7.6294,5.3783,1590688471,N
68,2274098,-0.7801,-7.7815,5.7452,40.0400,-9.9400,-7.2800,1002.7924,-2.6201,-7.5370,5.7008,1590688471,N
68,2280053,1.8999,-6.6018,6.3769,20.5800,-37.4500,-3.9900,1002.7910,-2.0672,-7.5523,5.9042,1590688471,N
68,2281708,0.9332,-5.6016,6.2213,-64.1900,7.1400,-6.3700,1002.7891,-1.1598,-8.2619,5.1543,1590688471,N
68,2283792,1.4572,-7.7049,5.1733,-51.8000,41.7200,5.1800,1002.7874,-1.0252,-8.5988,4.6022,1590688471,N
68,2285862,0.2082,-10.4590,5.2187,-67.8300,12.1100,88.3400,1002.7853,-1.1397,-8.3578,5.0019,1590688471,N
68,2285284,-4.1874,-8.3031,5.1278,45.5000,34.7200,148.4000,1002.7833,-2.0913,-7.1941,6.3278,1590688472,N
68,2294220,-9.2435,-6.7908,3.3547,42.9100,26.1800,99.0500,1002.7818,-3.1087,-6.7651,6.3828,1590688472,N
68,2297553,-4.6971,-5.0943,4.5344,29.4700,-7.7000,45.3600,1002.7807,-3.8318,-6.4230,6.3429,1590688472,N
69,3219919,-7.7599,-1.9789,6.3171,137.9000,52.6400,104.7900,1002.7802,-4.8320,-5.0686,6.8653,1590688472,N
68,4197833,-8.0830,-3.5749,5.2977,-72.8700,-33.1800,15.6100,1002.7802,-5.3476,-4.7967,6.6757,1590688472,N
68,2439008,-8.1021,-2.9719,4.0798,-22.8200,12.6700,2.7300,1002.7803,-5.9410,-4.6820,6.2413,1590688472,N
68,2396142,-7.4847,-3.9099,3.9601,-6.3700,-6.1600,-1.4700,1002.7800,-6.4054,-4.4656,5.9329,1590688472,N
69,2379378,-8.0016,-3.8094,4.4794,3.4300,-13.1600,5.5300,1002.7781,-6.6701,-4.3975,5.6871,1590688472,N
69,2377270,-7.8604,-2.8977,4.9699,20.0900,-4.2700,12.4600,1002.7759,-6.9523,-4.1289,5.5487,1590688472,N
69,2379687,-7.9801,-2.5819,5.4221,14.1400,-5.3200,5.6000,1002.7746,-7.1402,-3.7948,5.5486,1590688472,N
69,2382668,-7.9250,-2.9360,5.3815,-3.6400,3.6400,-1.1900,1002.7737,-7.3085,-3.5581,5.4861,1590688472,N
68,2381433,-7.8891,-3.3212,4.7545,-17.6400,5.1100,-4.3400,1002.7727,-7.4289,-3.5156,5.3499,1590688473,N
70,2376251,-8.0136,-3.4241,4.5344,-3.5000,1.6100,1.2600,1002.7725,-7.5446,-3.4855,5.2059,1590688473,N
68,2373625,-8.0136,-3.1585,4.9292,0.4200,-0.2800,0.6300,1002.7724,-7.6405,-3.4712,5.0739,1590688473,N
69,2372965,-7.9298,-3.1920,4.8072,-0.2800,0.7000,0.1400,1002.7717,-7.7019,-3.4002,5.0289,1590688473,N
69,2372576,-7.9777,-3.3236,4.7282,-1.3300,0.2100,-0.5600,1002.7717,-7.7478,-3.3672,4.9804,1590688473,N
68,2372081,-8.0112,-3.2638,4.6971,-0.4200,0.1400,1.0500,1002.7718,-7.7934,-3.3507,4.9201,1590688473,N
68,2371784,-8.0447,-3.1944,4.7498,0.7700,0.2800,0.7000,1002.7717,-7.8355,-3.3234,4.8714,1590688473,N
68,2371362,-8.0207,-3.1920,4.7163,0.7000,0.7700,-0.0700,1002.7718,-7.8695,-3.2902,4.8390,1590688473,N
68,2369146,-7.9992,-3.3117,4.7713,-0.0700,-0.2800,0.2100,1002.7729,-7.8948,-3.2680,4.8128,1590688473,N
68,2364800,-8.0399,-3.2327,4.7282,0.0700,0.0700,0.3500,1002.7742,-7.9049,-3.2688,4.7956,1590688474,N
68,2361602,-8.0255,-3.2471,4.7378,0.0700,0.1400,0.3500,1002.7755,-7.9238,-3.2546,4.7741,1590688474,N
68,2359695,-8.0638,-3.2734,4.7282,0.3500,0.1400,0.0700,1002.7767,-7.9347,-3.2471,4.7611,1590688474,N
68,2358000,-8.0136,-3.2255,4.7641,0.2100,-0.2800,0.0700,1002.7773,-7.9434,-3.2451,4.7478,1590688474,N
68,2356500,-8.0231,-3.2590,4.7617,0.0700,-0.2800,0.0700,1002.7787,-7.9469,-3.2370,4.7475,1590688474,N
68,2355388,-8.0255,-3.1513,4.7952,-0.2100,0.0700,-0.3500,1002.7792,-7.9487,-3.2394,4.7429,1590688474,N
68,2354376,-7.9585,-3.1466,4.7498,0.7000,0.1400,0.1400,1002.7805,-7.9552,-3.2143,4.7491,1590688474,N
68,2351361,-8.0447,-3.2279,4.7617,-0.2100,-0.4900,-0.4900,1002.7812,-7.9544,-3.2067,4.7555,1590688474,N
68,2347103,-8.0518,-3.1633,4.8072,-0.2100,-0.1400,-0.2100,1002.7815,-7.9575,-3.2079,4.7496,1590688474,N
68,2344107,-8.0351,-3.2303,4.7880,0.2800,-0.1400,-0.0700,1002.7817,-7.9604,-3.1928,4.7548,1590688474,N
69,2342240,-8.0590,-3.1753,4.7521,-0.9100,-0.4900,-0.6300,1002.7828,-7.9564,-3.2027,4.7548,1590688474,N
68,2340898,-8.0255,-3.2136,4.6971,0.2800,-0.9800,0.9800,1002.7829,-7.9647,-3.1864,4.7520,1590688475,N
68,2339683,-8.0590,-3.0676,4.8024,0.5600,-0.0700,0.4900,1002.7829,-7.9731,-3.1846,4.7390,1590688475,N
68,2339460,-7.9944,-3.2423,4.7761,0.2100,-0.0700,-0.9100,1002.7833,-7.9752,-3.1626,4.7503,1590688475,N
68,2340193,-7.9705,-3.1585,4.7809,0.1400,0.4900,-0.2800,1002.7835,-7.9712,-3.1756,4.7483,1590688475,N
68,2339317,-7.9968,-3.2830,4.7856,0.0700,-0.2800,0.0700,1002.7834,-7.9684,-3.1713,4.7559,1590688475,N
68,2338666,-8.0447,-3.1657,4.8072,0.0700,0.0700,-0.6300,1002.7827,-7.9593,-3.1925,4.7568,1590688475,N
68,2340312,-8.0495,-3.1944,4.7785,-0.0700,0.6300,-0.9100,1002.7819,-7.9613,-3.1871,4.7571,1590688475,N
68,2341739,-8.0351,-3.1729,4.7139,-0.0700,0.0700,-0.7000,1002.7806,-7.9623,-3.1880,4.7549,1590688475,N
68,2343338,-8.0255,-3.1561,4.7641,0.5600,0.2100,-0.2800,1002.7792,-7.9703,-3.1823,4.7452,1590688475,N
68,2345438,-7.9992,-3.1657,4.7856,-0.4200,-0.0700,-0.2800,1002.7776,-7.9727,-3.1776,4.7444,1590688476,N
68,2347353,-8.0351,-3.1226,4.7067,0.0700,-0.2800,-0.3500,1002.7764,-7.9688,-3.1753,4.7525,1590688476,N
68,2347247,-8.0351,-3.2231,4.7952,-0.7700,0.3500,-0.4900,1002.7753,-7.9797,-3.1694,4.7380,1590688476,N
68,2344727,-8.0638,-3.1944,4.6875,-0.7700,-0.0700,-0.2100,1002.7748,-7.9756,-3.1786,4.7388,1590688476,N
68,2343351,-8.0279,-3.2734,4.6995,-0.1400,-0.9100,-0.1400,1002.7753,-7.9798,-3.1812,4.7300,1590688476,N
68,2343202,-8.0590,-3.1609,4.7785,0.1400,-0.1400,0.2100,1002.7758,-7.9808,-3.1943,4.7195,1590688476,N
68,2343444,-7.9801,-3.1801,4.7402,-0.2800,-0.2800,-0.2100,1002.7770,-7.9811,-3.1852,4.7251,1590688476,N
68,2343517,-8.0495,-3.1537,4.7043,0.2100,-0.3500,-0.1400,1002.7775,-7.9776,-3.1846,4.7315,1590688476,N
67,2343641,-8.0112,-3.1681,4.7450,0.0700,-0.2100,-0.2100,1002.7781,-7.9841,-3.1776,4.7253,1590688476,N
68,2344024,-8.0279,-3.2016,4.7378,-0.2100,-0.3500,0.2800,1002.7785,-7.9847,-3.1732,4.7271,1590688476,N
68,2343051,-8.0471,-3.0365,4.7617,-0.1400,0.2800,-0.2800,1002.7789,-7.9854,-3.1777,4.7229,1590688476,N
68,2339731,-8.0231,-3.1920,4.7186,-0.1400,-0.2100,-0.2800,1002.7793,-7.9917,-3.1506,4.7304,1590688477,N
67,2337527,-8.0207,-3.1609,4.7210,-0.3500,-0.4900,-0.2800,1002.7802,-7.9892,-3.1605,4.7279,1590688477,N
67,2337094,-8.0375,-3.1346,4.6971,0.1400,-0.4900,-0.2100,1002.7808,-7.9884,-3.1608,4.7293,1590688477,N
68,2336936,-8.0231,-3.1633,4.6804,0.1400,-0.2100,-0.3500,1002.7820,-7.9927,-3.1567,4.7247,1590688477,N
67,2336387,-8.0327,-3.1346,4.7474,0.1400,-0.4200,-0.3500,1002.7836,-7.9940,-3.1601,4.7201,1590688477,N
68,2336582,-8.0518,-3.1394,4.7809,-0.2100,-0.1400,-0.2800,1002.7850,-7.9940,-3.1555,4.7232,1590688477,N
67,2336725,-8.0590,-3.1920,4.6540,-0.5600,-0.2100,-0.2100,1002.7859,-7.9928,-3.1516,4.7279,1590688477,N
68,2335734,-8.0447,-3.0317,4.7450,0.2100,0.2100,-0.3500,1002.7867,-8.0000,-3.1590,4.7107,1590688477,N
67,2332345,-8.0207,-3.1490,4.7115,0.2800,-0.2800,-0.1400,1002.7872,-8.0047,-3.1330,4.7202,1590688477,N
67,2330011,-8.0542,-3.0987,4.7282,-0.4200,-0.5600,-0.6300,1002.7880,-8.0003,-3.1419,4.7217,1590688478,N
67,2330134,-8.0303,-3.1872,4.7617,0.1400,-0.9100,0.0700,1002.7872,-8.0014,-3.1315,4.7267,1590688478,N
68,2330600,-8.0638,-3.0485,4.7186,0.1400,-0.4200,0.4900,1002.7864,-7.9979,-3.1357,4.7299,1590688478,N
67,2331671,-8.0399,-3.1059,4.7665,-0.2800,-0.1400,-1.1900,1002.7854,-8.0016,-3.1261,4.7300,1590688478,N
67,2333684,-8.0303,-3.1801,4.7521,0.4200,0.1400,-0.3500,1002.7844,-8.0009,-3.1200,4.7352,1590688478,N
67,2336038,-7.9801,-3.1394,4.8096,0.2100,-0.2800,-0.4900,1002.7843,-7.9945,-3.1316,4.7383,1590688478,N
68,2338751,-8.0423,-3.1250,4.7809,0.2800,0.5600,-0.7000,1002.7847,-7.9865,-3.1345,4.7498,1590688478,N
68,2338273,-8.0518,-3.1466,4.7521,0.2800,0.5600,-0.6300,1002.7849,-7.9877,-3.1314,4.7499,1590688478,N
68,2337347,-8.0399,-3.1059,4.7833,0.2800,0.2100,-0.2800,1002.7851,-7.9904,-3.1313,4.7454,1590688478,N
68,2338069,-8.0447,-3.1226,4.7617,0.0700,0.2100,-0.4900,1002.7847,-7.9906,-3.1257,4.7487,1590688478,N
68,2339449,-8.0255,-3.1418,4.7521,-0.2100,-0.0700,-0.3500,1002.7844,-7.9916,-3.1252,4.7474,1590688479,N
68,2340580,-8.0686,-3.1035,4.7689,-0.9100,0.0700,-0.5600,1002.7848,-7.9913,-3.1332,4.7427,1590688479,N
68,2342032,-8.1069,-3.2016,4.7282,0.0700,0.2800,-0.4200,1002.7842,-7.9952,-3.1252,4.7414,1590688479,N
68,2343925,-8.0590,-3.1585,4.7521,-0.1400,-0.6300,-0.0700,1002.7822,-7.9965,-3.1353,4.7325,1590688479,N
69,2345534,-8.0758,-3.1609,4.7498,0.1400,-0.1400,0.6300,1002.7806,-8.0001,-3.1311,4.7292,1590688479,N
69,2345590,-8.0518,-3.0772,4.7641,0.1400,0.1400,-0.5600,1002.7794,-7.9998,-3.1349,4.7271,1590688479,N
69,2343001,-8.0207,-3.2088,4.7115,0.1400,-0.2100,-0.1400,1002.7791,-8.0015,-3.1215,4.7331,1590688479,N
69,2341195,-8.0447,-3.0700,4.7809,-0.4900,-0.4900,-0.2800,1002.7782,-7.9968,-3.1411,4.7281,1590688479,N
69,2341047,-8.0518,-3.1035,4.7306,0.1400,0.0700,-0.3500,1002.7789,-7.9981,-3.1260,4.7360,1590688479,N
69,2341476,-8.0758,-3.1131,4.7306,-0.0700,-0.2100,-0.2800,1002.7792,-8.0010,-3.1218,4.7339,1590688479,N
69,2341520,-8.0686,-3.1466,4.7043,0.0700,-0.2800,-0.2100,1002.7788,-8.0042,-3.1180,4.7309,1590688480,N
69,2341893,-8.0566,-3.1274,4.7330,0.2800,-0.0700,-0.2800,1002.7785,-8.0071,-3.1216,4.7236,1590688480,N
69,2342325,-8.0327,-3.1585,4.8024,-0.0700,-0.2800,-0.4200,1002.7780,-8.0061,-3.1233,4.7242,1590688480,N
70,2342850,-8.0518,-3.1609,4.7043,0.3500,-0.2800,-0.4200,1002.7783,-7.9962,-3.1278,4.7380,1590688480,N
69,2341400,-8.0495,-3.0365,4.7234,-1.1200,-0.0700,-0.7700,1002.7785,-7.9980,-3.1412,4.7261,1590688480,N
69,2338106,-8.0877,-3.0987,4.7498,0.4200,-0.0700,-0.7700,1002.7782,-8.0026,-3.1235,4.7300,1590688480,N
69,2336380,-8.0160,-3.1250,4.7258,-0.2100,-0.6300,-0.2800,1002.7784,-8.0038,-3.1176,4.7319,1590688480,N
70,2336223,-8.0614,-3.1346,4.7809,-0.0700,-0.6300,-0.3500,1002.7784,-8.0000,-3.1220,4.7353,1590688480,N
70,2336347,-8.0279,-3.2040,4.7450,0.1400,-0.2800,-0.3500,1002.7792,-7.9967,-3.1219,4.7409,1590688480,N
69,2336111,-8.1045,-3.1226,4.7330,-0.1400,-0.1400,-0.3500,1002.7796,-7.9920,-3.1379,4.7383,1590688480,N
69,2336417,-8.0590,-3.1466,4.7067,-0.1400,-0.1400,-0.3500,1002.7799,-7.9985,-3.1326,4.7309,1590688481,N
70,2336663,-8.0399,-3.0700,4.7210,-0.1400,-0.4200,-0.4200,1002.7800,-7.9998,-3.1366,4.7260,1590688481,N
70,2336835,-8.0136,-3.1585,4.7593,0.0700,-0.2800,-0.0700,1002.7800,-8.0046,-3.1233,4.7267,1590688481,N
70,2337040,-8.1165,-3.1155,4.7115,-0.0700,0.2800,-0.1400,1002.7792,-8.0015,-3.1290,4.7281,1590688481,N
70,2334978,-8.0853,-3.1083,4.7091,-0.5600,-0.4900,-0.9100,1002.7789,-8.0050,-3.1300,4.7216,1590688481,N
70,2331944,-8.0327,-3.1681,4.7833,0.0700,-0.2800,0.2100,1002.7789,-8.0120,-3.1210,4.7156,1590688481,N
70,2331249,-8.0518,-3.1011,4.7713,0.3500,-0.4200,-0.1400,1002.7789,-8.0026,-3.1266,4.7279,1590688481,N
70,2332709,-8.0255,-3.1394,4.7689,0.0700,-0.2100,-0.8400,1002.7791,-7.9987,-3.1239,4.7364,1590688481,N
70,2334432,-8.0495,-3.1442,4.7474,0.0700,-0.2100,-0.2100,1002.7784,-7.9950,-3.1257,4.7413,1590688481,N
70,2336637,-8.0255,-3.1107,4.7545,-0.0700,-0.1400,-0.5600,1002.7780,-7.9939,-3.1302,4.7402,1590688481,N
70,2339441,-8.1117,-3.2016,4.7521,-0.0700,-0.1400,-0.6300,1002.7779,-7.9923,-3.1293,4.7435,1590688481,N
70,2342525,-8.0638,-3.1011,4.7665,0.3500,-0.3500,-0.3500,1002.7784,-7.9921,-3.1373,4.7385,1590688482,N
70,2345206,-8.0207,-3.1801,4.7474,0.2800,-0.2800,-0.5600,1002.7790,-7.9922,-3.1294,4.7436,1590688482,N
70,2347190,-8.0495,-3.0724,4.7498,0.1400,0.2100,-0.5600,1002.7798,-7.9894,-3.1398,4.7414,1590688482,N
70,2346877,-7.9968,-3.1777,4.7450,-0.2800,0.2100,-0.4900,1002.7804,-7.9952,-3.1283,4.7392,1590688482,N
70,2345108,-8.0088,-3.1202,4.7737,-0.3500,-0.0700,-0.5600,1002.7803,-7.9897,-3.1420,4.7396,1590688482,N
70,2344799,-8.0901,-3.1466,4.7186,-0.4900,0.0700,-0.2800,1002.7795,-7.9889,-3.1396,4.7424,1590688482,N
70,2345385,-7.9944,-3.1705,4.7234,-0.2800,-0.1400,-0.4200,1002.7788,-7.9948,-3.1404,4.7320,1590688482,N
70,2345912,-7.9920,-3.1418,4.6708,-0.3500,-0.4200,-0.0700,1002.7778,-7.9919,-3.1484,4.7316,1590688482,N
70,2346609,-8.0830,-3.1418,4.7067,-0.2800,-0.3500,-0.2100,1002.7773,-7.9946,-3.1520,4.7245,1590688482,N
70,2347642,-8.0303,-3.1513,4.7354,-0.1400,-0.4900,-0.2800,1002.7769,-7.9989,-3.1492,4.7192,1590688482,N
70,2348360,-8.0040,-3.1753,4.7809,-0.2800,-0.2100,-0.2100,1002.7770,-7.9979,-3.1502,4.7203,1590688483,N
70,2349006,-8.0710,-3.1490,4.7450,-0.0700,-0.0700,-0.1400,1002.7771,-7.9913,-3.1538,4.7290,1590688483,N
69,2347776,-8.0710,-3.1370,4.7617,-0.7700,-0.0700,-0.7000,1002.7771,-7.9927,-3.1559,4.7252,1590688483,N
70,2344850,-8.0734,-3.1346,4.7163,0.2800,-0.1400,-0.0700,1002.7761,-7.9948,-3.1470,4.7277,1590688483,N
70,2343186,-7.9944,-3.1705,4.7282,-0.1400,-0.4900,-0.2800,1002.7759,-7.9980,-3.1441,4.7241,1590688483,N
70,2342994,-8.0518,-3.1777,4.7641,-0.1400,-0.0700,-0.2800,1002.7751,-7.9945,-3.1514,4.7252,1590688483,N
69,2343126,-8.0806,-3.1657,4.7665,0.0700,-0.2800,-0.2800,1002.7747,-7.9911,-3.1539,4.7291,1590688483,N
69,2342949,-8.0830,-3.1633,4.7378,0.0700,-0.2800,-0.2800,1002.7748,-7.9908,-3.1522,4.7308,1590688483,N
69,2343138,-8.0734,-3.1394,4.6851,-0.1400,-0.0700,-0.3500,1002.7757,-7.9940,-3.1522,4.7255,1590688483,N
69,2343421,-8.0542,-3.1202,4.7450,0.0700,-0.2800,-0.3500,1002.7762,-8.0000,-3.1495,4.7171,1590688484,N
69,2343556,-8.0375,-3.1466,4.7474,0.0700,-0.3500,-0.2100,1002.7766,-8.0002,-3.1423,4.7216,1590688484,N
69,2343797,-8.0088,-3.1825,4.7258,-0.3500,-0.1400,-0.2100,1002.7777,-7.9991,-3.1432,4.7228,1590688484,N
69,2343184,-8.0662,-3.0580,4.7234,-0.2100,0.0700,-0.5600,1002.7789,-7.9953,-3.1540,4.7220,1590688484,N
69,2340177,-8.0040,-3.1705,4.7641,0.1400,-0.1400,-0.1400,1002.7792,-8.0034,-3.1337,4.7218,1590688484,N
69,2337929,-8.0566,-3.1226,4.7641,-0.2800,-0.2800,-0.5600,1002.7798,-7.9945,-3.1441,4.7300,1590688484,N
69,2337503,-8.0423,-3.1537,4.7785,0.3500,0.1400,-0.1400,1002.7798,-7.9967,-3.1355,4.7320,1590688484,N
68,2337492,-8.0183,-3.1298,4.7402,-0.3500,-0.3500,-0.4200,1002.7799,-7.9918,-3.1395,4.7375,1590688484,N
69,2337321,-8.0255,-3.1178,4.7641,-0.2100,-0.6300,-0.1400,1002.7808,-7.9904,-3.1389,4.7403,1590688484,N
68,2337645,-8.0734,-3.1131,4.7282,-0.2100,-0.2100,-0.2800,1002.7808,-7.9899,-3.1355,4.7435,1590688484,N
69,2338824,-8.0566,-3.1705,4.7282,-0.0700,-0.3500,-0.6300,1002.7801,-7.9932,-3.1326,4.7399,1590688485,N
68,2340639,-8.0758,-3.1466,4.7880,0.2800,-0.2100,-0.0700,1002.7799,-7.9947,-3.1362,4.7349,1590688485,N
68,2342244,-8.0112,-3.1513,4.7976,0.0700,0.2100,-0.3500,1002.7805,-7.9947,-3.1340,4.7364,1590688485,N
68,2343277,-7.9992,-3.0293,4.7856,0.1400,0.0700,-0.7000,1002.7798,-7.9869,-3.1385,4.7465,1590688485,N
68,2341641,-7.9944,-3.1633,4.6756,-0.1400,-0.2800,-0.2800,1002.7783,-7.9878,-3.1197,4.7574,1590688485,N
68,2340378,-8.0088,-3.0820,4.7498,-0.1400,-0.1400,-0.4200,1002.7775,-7.9899,-3.1333,4.7449,1590688485,N
68,2341083,-7.9753,-3.1298,4.7593,0.2100,0.1400,-0.4900,1002.7762,-7.9916,-3.1253,4.7474,1590688485,N
67,2342081,-8.0136,-3.1250,4.8120,-0.2800,0.0700,-0.7000,1002.7748,-7.9866,-3.1322,4.7513,1590688485,N
68,2343026,-8.0423,-3.1513,4.7569,0.1400,0.0700,-0.1400,1002.7747,-7.9835,-3.1280,4.7592,1590688485,N
68,2344608,-8.0375,-3.1466,4.7665,-0.4200,0.0700,-0.5600,1002.7745,-7.9845,-3.1343,4.7533,1590688485,N
68,2346629,-8.0255,-3.0987,4.7163,0.2800,0.0700,-0.2100,1002.7752,-7.9854,-3.1337,4.7522,1590688486,N
68,2348394,-8.0375,-3.1107,4.7833,-0.6300,-0.2100,-0.1400,1002.7762,-7.9918,-3.1299,4.7440,1590688486,N
68,2349488,-7.9801,-3.1992,4.7163,-0.2100,-0.4200,0.1400,1002.7766,-7.9916,-3.1233,4.7486,1590688486,N
67,2349151,-8.0590,-3.0556,4.7833,-0.6300,-0.4200,-0.5600,1002.7773,-7.9854,-3.1451,4.7447,1590688486,N
67,2346439,-8.0662,-3.1561,4.7282,0.2100,-0.0700,-0.0700,1002.7773,-7.9910,-3.1239,4.7492,1590688486,N
67,2344252,-8.0877,-3.1466,4.7354,-0.4200,-0.4900,-0.4200,1002.7762,-7.9921,-3.1314,4.7424,1590688486,N
67,2343759,-8.0853,-3.0867,4.7234,0.0700,-0.4900,-0.1400,1002.7749,-7.9951,-3.1308,4.7377,1590688486,N
67,2343536,-8.0877,-3.1226,4.7163,0.0700,-0.0700,-0.2800,1002.7742,-8.0028,-3.1204,4.7317,1590688486,N
67,2343285,-8.0518,-3.1561,4.7402,-0.2100,-0.2100,-0.2100,1002.7740,-8.0077,-3.1194,4.7240,1590688486,N
67,2343294,-8.0088,-3.1418,4.7258,-0.1400,-0.0700,-0.3500,1002.7743,-8.0056,-3.1261,4.7231,1590688486,N
67,2343508,-8.0279,-3.1394,4.7665,-0.0700,-0.2800,-0.4200,1002.7754,-8.0015,-3.1322,4.7261,1590688486,N
67,2343456,-7.9992,-3.1107,4.7139,-0.1400,-0.2100,-0.2100,1002.7761,-7.9978,-3.1331,4.7317,1590688487,N
67,2343520,-8.0877,-3.1466,4.7904,-0.3500,0.0700,-0.1400,1002.7764,-8.0005,-3.1316,4.7281,1590688487,N
66,2343313,-8.0734,-3.0030,4.7713,0.3500,0.2800,-0.3500,1002.7767,-8.0000,-3.1286,4.7310,1590688487,N
67,2340119,-8.0183,-3.2088,4.7593,-0.0700,-0.1400,-0.2800,1002.7770,-8.0062,-3.1033,4.7371,1590688487,N
67,2337137,-8.0614,-3.0724,4.7809,-0.1400,-0.0700,-0.4200,1002.7770,-7.9977,-3.1242,4.7379,1590688487,N
67,2336347,-8.0853,-3.0843,4.8144,0.2800,-0.1400,-0.4200,1002.7761,-7.9982,-3.1123,4.7448,1590688487,N
66,2336148,-8.0638,-3.1226,4.7234,-0.3500,-0.0700,-0.4900,1002.7757,-7.9977,-3.1054,4.7502,1590688487,N
66,2335772,-8.0758,-3.1202,4.7306,-0.0700,-0.1400,-0.4200,1002.7768,-8.0007,-3.1092,4.7426,1590688487,N
66,2335718,-8.1236,-3.1370,4.7761,-0.1400,-0.0700,-0.2800,1002.7776,-8.0045,-3.1101,4.7355,1590688487,N
66,2336212,-8.0877,-3.1107,4.7833,-0.1400,-0.3500,-0.4200,1002.7776,-8.0043,-3.1114,4.7351,1590688488,N
66,2336417,-8.0806,-3.1346,4.7713,-0.1400,-0.2100,-0.4200,1002.7789,-8.0032,-3.1092,4.7384,1590688488,N
66,2336363,-8.0447,-3.0915,4.7617,-0.1400,0.0700,-0.2800,1002.7806,-8.0036,-3.1110,4.7365,1590688488,N
65,2336333,-8.0423,-3.1011,4.7521,0.5600,0.3500,-0.2100,1002.7815,-8.0054,-3.1035,4.7383,1590688488,N
66,2333316,-8.0160,-3.2351,4.7689,0.5600,-0.4200,-0.4200,1002.7819,-8.0023,-3.1022,4.7446,1590688488,N
66,2330273,-8.0518,-3.0724,4.8000,-0.4900,-0.2800,-0.5600,1002.7823,-7.9909,-3.1303,4.7452,1590688488,N
66,2329440,-8.0375,-3.2088,4.6947,-0.1400,-0.4900,0.1400,1002.7831,-7.9921,-3.1154,4.7530,1590688488,N
65,2329930,-8.0351,-3.1035,4.7880,-0.3500,-0.2800,-0.7700,1002.7838,-7.9903,-3.1384,4.7410,1590688488,N
65,2330545,-8.0399,-3.1705,4.7474,-0.2100,-0.2800,-0.4900,1002.7850,-7.9879,-3.1328,4.7486,1590688488,N
65,2331947,-8.0758,-3.1226,4.7833,-0.0700,-0.1400,-0.2100,1002.7864,-7.9879,-3.1387,4.7447,1590688488,N
65,2334219,-8.1045,-3.1298,4.7665,0.3500,-0.0700,-0.2100,1002.7875,-7.9899,-3.1304,4.7469,1590688489,N
65,2336950,-8.0614,-3.1226,4.7880,0.3500,0.2100,-0.4900,1002.7886,-7.9943,-3.1255,4.7427,1590688489,N
65,2339402,-7.9968,-3.1537,4.7665,-0.0700,-0.2100,-0.2800,1002.7896,-7.9931,-3.1226,4.7467,1590688489,N
64,2340707,-8.0686,-3.0556,4.7521,-0.0700,0.2100,-0.5600,1002.7896,-7.9885,-3.1311,4.7487,1590688489,N
65,2338863,-8.0351,-3.2231,4.7617,-0.4200,-0.2100,-0.3500,1002.7902,-7.9952,-3.1174,4.7464,1590688489,N
64,2336512,-8.1045,-3.0604,4.7378,-0.2100,-0.0700,-0.3500,1002.7906,-7.9895,-3.1369,4.7433,1590688489,N
64,2335955,-8.0542,-3.1753,4.7569,-0.2100,-0.3500,-0.3500,1002.7908,-7.9983,-3.1210,4.7388,1590688489,N
64,2336114,-8.0806,-3.0963,4.7928,-0.2100,-0.0700,-0.3500,1002.7911,-7.9960,-3.1305,4.7364,1590688489,N
63,2336007,-8.0638,-3.0963,4.7186,-0.2100,-0.1400,-0.3500,1002.7912,-7.9969,-3.1216,4.7409,1590688489,N
64,2336303,-8.0518,-3.1394,4.8144,-0.0700,-0.1400,-0.2100,1002.7909,-8.0028,-3.1161,4.7345,1590688489,N
64,2336803,-8.1093,-3.1370,4.7282,0.1400,-0.0700,-0.3500,1002.7902,-7.9964,-3.1173,4.7445,1590688490,N
64,2336700,-8.0183,-3.1633,4.7641,0.1400,-0.1400,-0.2800,1002.7906,-8.0020,-3.1171,4.7352,1590688490,N
64,2336924,-8.0518,-3.1059,4.7785,-0.0700,-0.0700,-0.3500,1002.7902,-7.9965,-3.1263,4.7384,1590688490,N
63,2336874,-8.0710,-3.0652,4.7354,0.4900,0.3500,-0.0700,1002.7897,-7.9989,-3.1168,4.7406,1590688490,N
63,2333743,-8.0136,-3.1346,4.7282,-0.1400,-0.2800,-0.4200,1002.7891,-8.0035,-3.1077,4.7388,1590688490,N
63,2330146,-8.0375,-3.1107,4.7402,-0.1400,-0.1400,-0.3500,1002.7886,-8.0015,-3.1154,4.7372,1590688490,N
63,2328888,-8.0686,-3.2040,4.7163,-0.2800,-0.3500,-0.2100,1002.7879,-8.0015,-3.1155,4.7371,1590688490,N
63,2328889,-8.0590,-3.1059,4.7402,-0.2800,-0.2100,-0.3500,1002.7865,-8.0006,-3.1321,4.7276,1590688490,N
62,2328423,-8.0183,-3.0939,4.7689,-0.0700,-0.1400,-0.2800,1002.7844,-8.0029,-3.1263,4.7275,1590688490,N
63,2328333,-8.0471,-3.1035,4.7521,-0.0700,-0.1400,-0.2800,1002.7835,-8.0005,-3.1208,4.7354,1590688490,N
63,2328867,-8.0518,-3.0891,4.7952,0.1400,-0.3500,-0.2800,1002.7836,-8.0000,-3.1166,4.7389,1590688491,N
63,2329054,-8.0351,-3.1370,4.7833,0.0700,-0.2800,-0.2100,1002.7833,-7.9980,-3.1089,4.7474,1590688491,N
63,2329268,-8.0638,-3.1107,4.7689,-0.2100,-0.1400,-0.2100,1002.7830,-7.9947,-3.1133,4.7500,1590688491,N
62,2328628,-8.0471,-3.0078,4.7665,-0.4200,-0.1400,-0.7000,1002.7833,-7.9944,-3.1151,4.7494,1590688491,N
62,2324966,-8.0255,-3.1968,4.7378,-0.0700,-0.3500,0.0700,1002.7839,-8.0008,-3.0927,4.7532,1590688491,N
62,2322380,-8.0830,-3.0652,4.7713,-0.3500,-0.2100,-0.4200,1002.7842,-7.9957,-3.1149,4.7473,1590688491,N
62,2322346,-8.0112,-3.1801,4.7234,-0.3500,-0.2100,-0.2800,1002.7841,-8.0002,-3.1042,4.7468,1590688491,N
62,2323669,-8.1117,-3.1585,4.8048,-0.1400,-0.2800,-0.4900,1002.7839,-7.9953,-3.1221,4.7432,1590688491,N
62,2325128,-8.0255,-3.1753,4.7809,-0.1400,-0.2100,-0.3500,1002.7848,-7.9938,-3.1239,4.7446,1590688491,N
61,2327174,-8.0925,-3.1107,4.7402,-0.0700,-0.0700,-0.4200,1002.7856,-7.9881,-3.1335,4.7478,1590688491,N
62,2329987,-8.0255,-3.1561,4.6828,0.2100,-0.3500,-0.3500,1002.7863,-7.9932,-3.1264,4.7439,1590688491,N
61,2332769,-8.0566,-3.1035,4.8072,-0.3500,-0.2800,-0.4900,1002.7859,-7.9954,-3.1369,4.7333,1590688492,N
62,2334790,-7.9968,-3.1322,4.7234,0.2100,-0.4200,0.1400,1002.7860,-7.9938,-3.1244,4.7442,1590688492,N
61,2334947,-8.1021,-3.0820,4.7450,-0.3500,0.1400,-0.6300,1002.7866,-7.9933,-3.1316,4.7404,1590688492,N
61,2332107,-8.0495,-3.1490,4.7689,0.3500,0.2800,-0.1400,1002.7865,-8.0030,-3.1162,4.7341,1590688492,N
61,2329878,-8.0495,-3.0748,4.7833,-0.2800,0.2800,-0.7000,1002.7862,-8.0000,-3.1239,4.7341,1590688492,N
61,2329850,-8.0112,-3.1322,4.7785,0.1400,0.3500,-0.3500,1002.7854,-8.0018,-3.1124,4.7386,1590688492,N
61,2329798,-8.0566,-3.1202,4.7474,-0.1400,-0.1400,-0.2800,1002.7845,-7.9964,-3.1168,4.7448,1590688492,N
61,2329784,-8.0877,-3.1394,4.7378,-0.1400,-0.2100,-0.1400,1002.7839,-7.9985,-3.1160,4.7418,1590688492,N
61,2330163,-8.0183,-3.1202,4.7306,-0.2100,-0.2800,-0.4200,1002.7844,-8.0004,-3.1197,4.7362,1590688492,N
61,2330444,-8.0782,-3.1107,4.7186,-0.0700,-0.2100,-0.3500,1002.7853,-7.9994,-3.1219,4.7364,1590688493,N
61,2330475,-8.0399,-3.1107,4.7498,-0.1400,-0.2100,-0.2100,1002.7867,-8.0047,-3.1186,4.7296,1590688493,N
61,2330759,-8.0542,-3.1801,4.7569,0.0700,0.1400,-0.2100,1002.7877,-8.0055,-3.1157,4.7302,1590688493,N
61,2328583,-8.0303,-3.2136,4.7498,-0.6300,-0.2800,-0.7700,1002.7888,-7.9989,-3.1317,4.7307,1590688493,N
60,2324261,-8.0471,-3.1011,4.7354,0.2800,0.0700,-0.1400,1002.7896,-7.9947,-3.1439,4.7298,1590688493,N
61,2321796,-8.0064,-3.1561,4.7019,-0.3500,-0.6300,-0.4200,1002.7906,-7.9953,-3.1383,4.7325,1590688493,N
60,2321654,-8.0638,-3.0197,4.7426,0.0700,0.0700,-0.2100,1002.7916,-7.9968,-3.1429,4.7270,1590688493,N
61,2321407,-8.0423,-3.1513,4.7330,0.2100,-0.1400,-0.2100,1002.7922,-8.0045,-3.1176,4.7307,1590688493,N
60,2321172,-8.0590,-3.0796,4.6851,-0.2100,-0.3500,-0.3500,1002.7927,-8.0019,-3.1253,4.7299,1590688493,N
60,2321803,-8.0614,-3.0987,4.7426,-0.0700,-0.3500,-0.3500,1002.7932,-8.0083,-3.1186,4.7235,1590688493,N
61,2322404,-8.0806,-3.1226,4.6875,-0.0700,-0.4900,-0.2800,1002.7936,-8.0077,-3.1145,4.7272,1590688494,N
60,2322499,-8.0112,-3.1011,4.7521,-0.2800,-0.0700,-0.1400,1002.7941,-8.0145,-3.1155,4.7150,1590688494,N
60,2322713,-8.0901,-3.2303,4.7450,-0.0700,-0.2800,-0.0700,1002.7952,-8.0105,-3.1131,4.7234,1590688494,N
60,2321030,-8.0566,-3.0437,4.8144,-0.8400,-0.3500,-0.8400,1002.7961,-8.0033,-3.1383,4.7190,1590688494,N
60,2317154,-8.0949,-3.1226,4.7785,0.4200,-0.3500,-0.0700,1002.7963,-8.0018,-3.1151,4.7368,1590688494,N
60,2315039,-8.0279,-3.1346,4.7282,-0.4900,-0.6300,-0.6300,1002.7961,-7.9988,-3.1173,4.7405,1590688494,N
60,2315521,-8.0662,-3.0173,4.7091,0.2800,0.0700,-0.2100,1002.7962,-7.9998,-3.1196,4.7372,1590688494,N
60,2315659,-8.0016,-3.1872,4.7163,-0.2800,-0.3500,-0.4900,1002.7964,-8.0080,-3.1034,4.7341,1590688494,N
60,2315884,-8.0566,-3.0987,4.7713,-0.4200,-0.4200,-0.2800,1002.7972,-8.0017,-3.1233,4.7316,1590688494,N
60,2317413,-8.0830,-3.1513,4.8072,-0.2800,-0.2100,-0.4900,1002.7975,-8.0005,-3.1194,4.7363,1590688494,N
60,2319573,-8.0566,-3.1729,4.7761,-0.1400,-0.2800,-0.3500,1002.7980,-7.9959,-3.1219,4.7423,1590688495,N
60,2321724,-8.0375,-3.0628,4.7785,-0.1400,-0.3500,-0.2800,1002.7989,-7.9918,-3.1297,4.7441,1590688495,N
60,2323295,-7.9944,-3.1131,4.7378,-0.0700,-0.6300,-0.2800,1002.7994,-7.9913,-3.1173,4.7531,1590688495,N
60,2323345,-8.0447,-3.1083,4.7426,-0.9100,0.0700,-0.4900,1002.8000,-7.9919,-3.1233,4.7482,1590688495,N
60,2320895,-8.0423,-3.1609,4.7833,0.5600,0.0700,-0.0700,1002.8002,-7.9960,-3.1164,4.7457,1590688495,N
60,2319844,-8.0973,-3.1035,4.7282,-0.2100,-0.4200,-0.5600,1002.8003,-7.9894,-3.1259,4.7506,1590688495,N
60,2320963,-8.0207,-3.0604,4.8479,0.2800,0.1400,-0.3500,1002.8008,-7.9982,-3.1182,4.7409,1590688495,N
60,2322081,-8.0782,-3.1561,4.8048,-0.2100,-0.0700,-0.5600,1002.7999,-7.9915,-3.1080,4.7589,1590688495,N
60,2323502,-8.0471,-3.0724,4.7880,-0.0700,0.1400,-0.4900,1002.7994,-7.9896,-3.1141,4.7581,1590688495,N
60,2326231,-7.9944,-3.1466,4.7833,-0.0700,0.1400,-0.4200,1002.7985,-7.9920,-3.1056,4.7597,1590688495,N
60,2329273,-8.0542,-3.0437,4.7234,0.1400,-0.0700,-0.2100,1002.7974,-7.9866,-3.1131,4.7637,1590688496,N
60,2331516,-7.9920,-3.1226,4.7210,-0.2800,0.0700,-0.2800,1002.7965,-7.9972,-3.1011,4.7538,1590688496,N
60,2332701,-8.0566,-3.1872,4.7139,-0.1400,-0.1400,-0.0700,1002.7952,-7.9975,-3.1075,4.7492,1590688496,N
60,2332352,-8.0040,-3.0628,4.7569,-0.2800,-0.1400,-0.3500,1002.7937,-7.9981,-3.1233,4.7378,1590688496,N
60,2328943,-8.0614,-3.1442,4.7139,0.2100,-0.1400,-0.0700,1002.7915,-7.9988,-3.1114,4.7443,1590688496,N
60,2326226,-8.0830,-3.1370,4.7378,-0.3500,-0.4200,-0.4900,1002.7903,-7.9997,-3.1202,4.7370,1590688496,N
60,2325947,-8.0112,-3.0437,4.7354,0.4200,0.0700,-0.0700,1002.7899,-8.0039,-3.1177,4.7316,1590688496,N
60,2325874,-8.0949,-3.1370,4.7378,-0.2800,-0.2100,-0.2800,1002.7897,-8.0058,-3.1070,4.7353,1590688496,N
60,2325714,-8.0590,-3.0772,4.7210,-0.0700,-0.1400,-0.2800,1002.7901,-8.0081,-3.1101,4.7295,1590688496,N
60,2326049,-8.0925,-3.1920,4.7641,-0.0700,-0.0700,-0.2800,1002.7909,-8.0122,-3.1040,4.7265,1590688496,N
60,2326510,-8.0542,-3.1202,4.7019,-0.0700,-0.2100,-0.3500,1002.7915,-8.0074,-3.1173,4.7258,1590688497,N
60,2326561,-8.0255,-3.1753,4.7378,0.0700,-0.2100,-0.2100,1002.7927,-8.0102,-3.1176,4.7210,1590688497,N
60,2326725,-8.1404,-3.0939,4.7521,-0.1400,-0.0700,-0.3500,1002.7933,-8.0050,-3.1296,4.7218,1590688497,N
60,2326775,-8.0590,-3.0628,4.7474,0.4200,0.2800,-0.2100,1002.7936,-8.0133,-3.1149,4.7175,1590688497,N
60,2323598,-8.0303,-3.1705,4.7498,-0.3500,-0.1400,-0.4200,1002.7940,-8.0144,-3.1065,4.7212,1590688497,N
60,2320371,-8.0183,-3.0293,4.7210,-0.2800,-0.1400,-0.3500,1002.7943,-8.0078,-3.1198,4.7235,1590688497,N
60,2319673,-8.0662,-3.1920,4.7593,-0.1400,-0.2800,-0.3500,1002.7949,-8.0105,-3.1062,4.7279,1590688497,N
60,2320218,-8.0088,-3.1035,4.7306,-0.5600,-0.4200,-0.5600,1002.7965,-8.0032,-3.1241,4.7285,1590688497,N
60,2320050,-8.0638,-3.1035,4.7139,-0.2100,-0.2800,-0.2100,1002.7971,-8.0024,-3.1226,4.7309,1590688497,N
59,2320858,-8.0327,-3.1083,4.7450,-0.2800,-0.1400,-0.4200,1002.7974,-8.0064,-3.1205,4.7255,1590688497,N
60,2323053,-8.0183,-3.1609,4.7761,-0.2800,-0.1400,-0.4900,1002.7977,-8.0045,-3.1209,4.7284,1590688498,N
60,2325570,-8.0375,-3.1681,4.7617,-0.1400,-0.6300,-0.3500,1002.7971,-7.9951,-3.1296,4.7386,1590688498,N
60,2327503,-8.0183,-3.1609,4.7498,0.0700,-0.4900,-0.2800,1002.7972,-7.9903,-3.1359,4.7425,1590688498,N
60,2328809,-8.1069,-3.1705,4.7019,0.0700,-0.4900,-0.4200,1002.7971,-7.9859,-3.1420,4.7460,1590688498,N
59,2328214,-8.0901,-3.1896,4.7880,-0.0700,-0.2800,-0.4200,1002.7972,-7.9926,-3.1457,4.7321,1590688498,N
60,2326050,-8.0614,-3.0987,4.7904,-0.0700,-0.2800,-0.4200,1002.7973,-7.9892,-3.1502,4.7349,1590688498,N
59,2325661,-8.0327,-3.2064,4.7450,-0.3500,-0.4900,-0.5600,1002.7985,-7.9877,-3.1412,4.7435,1590688498,N
60,2326662,-8.0782,-3.1035,4.7210,-0.3500,-0.4900,-0.7700,1002.7996,-7.9815,-3.1576,4.7430,1590688498,N
59,2327559,-7.9801,-3.1609,4.7210,-0.3500,-0.0700,-0.3500,1002.8018,-7.9908,-3.1473,4.7341,1590688498,N
59,2329242,-8.0614,-3.1083,4.7641,-0.2100,-0.0700,-0.5600,1002.8031,-7.9876,-3.1553,4.7342,1590688498,N
60,2332064,-8.0423,-3.1585,4.7306,-0.2100,0.2100,-0.3500,1002.8043,-7.9922,-3.1449,4.7333,1590688499,N
59,2334919,-8.0686,-3.1322,4.7521,-0.2800,-0.0700,-0.3500,1002.8057,-7.9933,-3.1483,4.7292,1590688499,N
60,2336915,-8.0327,-3.1896,4.7498,0.3500,-0.1400,-0.1400,1002.8055,-7.9957,-3.1407,4.7303,1590688499,N
60,2337982,-8.1141,-3.1083,4.6875,0.1400,0.0700,-0.4200,1002.8056,-7.9923,-3.1491,4.7305,1590688499,N
59,2336057,-8.0806,-3.1370,4.7282,-0.2100,-0.2800,-0.3500,1002.8059,-8.0030,-3.1403,4.7181,1590688499,N
60,2332564,-8.0949,-3.0820,4.7617,-0.1400,-0.0700,-0.2100,1002.8063,-8.0063,-3.1374,4.7144,1590688499,N
59,2331107,-8.0518,-3.1848,4.6971,-0.2100,-0.4200,-0.3500,1002.8066,-8.0079,-3.1252,4.7199,1590688499,N
59,2330968,-8.0303,-3.1298,4.7904,-0.2100,-0.2800,-0.2800,1002.8072,-8.0070,-3.1373,4.7133,1590688499,N
59,2330482,-8.0327,-3.1298,4.7378,-0.0700,-0.1400,-0.2100,1002.8074,-8.0013,-3.1343,4.7250,1590688499,N
59,2330419,-8.0279,-3.1226,4.7761,-0.0700,-0.2100,-0.2100,1002.8072,-8.0007,-3.1334,4.7266,1590688499,N
59,2330738,-8.0877,-3.1083,4.7761,-0.1400,-0.0700,-0.2800,1002.8059,-7.9977,-3.1310,4.7333,1590688500,N
59,2330824,-8.0471,-3.1466,4.7617,-0.2100,-0.3500,-0.2800,1002.8049,-7.9987,-3.1241,4.7362,1590688500,N
59,2330576,-8.0949,-3.1250,4.8000,-0.1400,-0.1400,-0.2100,1002.8038,-7.9972,-3.1270,4.7368,1590688500,N
59,2330913,-8.0447,-3.1801,4.7402,0.0700,-0.2100,-0.1400,1002.8032,-7.9971,-3.1207,4.7411,1590688500,N
59,2329405,-8.0255,-3.1131,4.7904,-0.8400,-0.1400,-0.7700,1002.8026,-7.9938,-3.1372,4.7358,1590688500,N
59,2325887,-7.9992,-3.1226,4.7737,0.4200,0.0700,0.0700,1002.8028,-7.9931,-3.1275,4.7433,1590688500,N
59,2323936,-8.1093,-3.0963,4.7569,-0.3500,-0.4200,-0.7000,1002.8032,-7.9864,-3.1319,4.7518,1590688500,N
59,2324336,-8.0351,-3.0532,4.7785,0.3500,0.0700,-0.0700,1002.8027,-7.9956,-3.1182,4.7453,1590688500,N
59,2324408,-8.0830,-3.1131,4.6971,-0.0700,-0.2100,-0.2800,1002.8027,-7.9967,-3.1059,4.7515,1590688500,N
59,2324364,-8.0901,-3.0843,4.7689,-0.1400,-0.1400,-0.4200,1002.8025,-8.0038,-3.1079,4.7382,1590688500,N
59,2325211,-8.1069,-3.1705,4.7426,-0.0700,-0.0700,-0.3500,1002.8022,-8.0064,-3.1010,4.7383,1590688501,N
59,2326109,-8.1045,-3.1537,4.7737,-0.1400,-0.3500,-0.3500,1002.8021,-8.0059,-3.1115,4.7322,1590688501,N
59,2326350,-8.0542,-3.1394,4.7210,0.0700,-0.2800,-0.2100,1002.8024,-8.0046,-3.1143,4.7326,1590688501,N
59,2326538,-8.0471,-3.1298,4.7785,-0.4900,-0.3500,-0.4200,1002.8030,-8.0043,-3.1217,4.7282,1590688501,N
59,2326832,-8.0782,-3.0245,4.7282,0.3500,0.1400,-0.0700,1002.8029,-8.0028,-3.1184,4.7330,1590688501,N
59,2324672,-8.0447,-3.1777,4.7737,-0.4900,-0.2800,-0.6300,1002.8019,-8.0091,-3.1041,4.7316,1590688501,N
59,2323060,-8.0806,-3.0796,4.7545,-0.2100,-0.2800,-0.1400,1002.8016,-8.0026,-3.1162,4.7347,1590688501,N
59,2323929,-8.0447,-3.1609,4.7545,-0.2100,-0.2100,-0.1400,1002.8013,-8.0067,-3.1070,4.7339,1590688501,N
59,2325881,-8.0614,-3.1418,4.6971,-0.5600,-0.2100,-0.9100,1002.8012,-8.0000,-3.1225,4.7350,1590688501,N
59,2327909,-8.0686,-3.1609,4.7234,-0.5600,-0.1400,-0.2800,1002.8019,-8.0047,-3.1280,4.7235,1590688501,N
59,2330406,-8.0806,-3.1274,4.7378,-0.2800,-0.2800,-0.6300,1002.8022,-8.0031,-3.1363,4.7206,1590688502,N
59,2333698,-8.0423,-3.1131,4.7378,0.1400,-0.1400,-0.2100,1002.8024,-8.0056,-3.1312,4.7198,1590688502,N
59,2337037,-8.0662,-3.0772,4.7617,-0.2800,-0.1400,-0.1400,1002.8019,-8.0065,-3.1277,4.7206,1590688502,N
59,2339640,-8.0160,-3.1777,4.7928,0.0700,-0.2800,-0.2100,1002.8022,-8.0074,-3.1158,4.7269,1590688502,N
59,2341297,-8.0423,-3.0891,4.7785,-0.3500,-0.2100,-0.4900,1002.8016,-7.9966,-3.1293,4.7363,1590688502,N
59,2340417,-8.0183,-3.1729,4.7091,-0.0700,-0.2100,-0.2800,1002.8006,-7.9961,-3.1208,4.7426,1590688502,N
59,2338769,-8.0231,-3.1155,4.7139,-0.0700,0.0700,-0.4200,1002.7993,-7.9960,-3.1330,4.7348,1590688502,N
59,2338563,-8.0375,-3.2016,4.7186,-0.1400,0.1400,-0.4200,1002.7974,-7.9992,-3.1322,4.7300,1590688502,N
59,2339094,-8.0518,-3.0293,4.7163,0.2800,0.3500,-0.0700,1002.7959,-8.0001,-3.1419,4.7220,1590688502,N
59,2339347,-8.0638,-3.1561,4.6804,0.2800,0.1400,-0.6300,1002.7953,-8.0072,-3.1222,4.7231,1590688502,N
59,2340247,-8.0160,-3.1274,4.7186,0.0700,-0.3500,-0.6300,1002.7942,-8.0078,-3.1311,4.7161,1590688503,N
59,2341324,-8.0662,-3.1753,4.7402,-0.2800,-0.2100,-0.2100,1002.7936,-8.0066,-3.1327,4.7171,1590688503,N
59,2341798,-8.0375,-3.1418,4.7976,-0.2100,-0.2100,-0.1400,1002.7927,-8.0051,-3.1385,4.7158,1590688503,N
59,2342001,-8.1021,-3.1418,4.7856,-0.0700,-0.2100,-0.4200,1002.7919,-7.9977,-3.1383,4.7284,1590688503,N
59,2342370,-8.0686,-3.0604,4.8144,0.5600,0.0700,-0.4200,1002.7914,-7.9977,-3.1325,4.7323,1590688503,N
59,2339842,-8.0207,-3.1872,4.7139,-0.2800,-0.2800,-0.4900,1002.7908,-7.9963,-3.1181,4.7441,1590688503,N
59,2336696,-8.0614,-3.0700,4.7306,-0.2100,-0.1400,-0.2800,1002.7910,-7.9950,-3.1330,4.7366,1590688503,N
59,2335325,-8.0136,-3.2327,4.7689,-0.2800,-0.3500,-0.2800,1002.7906,-8.0004,-3.1218,4.7348,1590688503,N
59,2335033,-8.0782,-3.1250,4.8144,-0.2100,-0.2100,-0.3500,1002.7910,-7.9904,-3.1432,4.7375,1590688503,N
59,2334354,-8.0830,-3.1131,4.7641,-0.2100,-0.1400,-0.2100,1002.7911,-7.9897,-3.1354,4.7438,1590688503,N
58,2334311,-8.0614,-3.1178,4.7210,-0.2100,-0.2100,-0.2100,1002.7912,-7.9937,-3.1285,4.7417,1590688504,N
59,2334748,-8.0088,-3.1131,4.7833,-0.1400,-0.1400,-0.3500,1002.7911,-7.9982,-3.1267,4.7353,1590688504,N
59,2334643,-8.0566,-3.1585,4.7378,-0.2800,-0.2100,-0.2800,1002.7908,-7.9938,-3.1255,4.7436,1590688504,N
59,2334508,-8.0112,-3.1226,4.8000,0.1400,-0.2800,-0.2100,1002.7905,-7.9942,-3.1296,4.7401,1590688504,N
59,2334617,-8.0662,-3.1155,4.6995,0.2800,0.2100,-0.1400,1002.7907,-7.9910,-3.1253,4.7483,1590688504,N
58,2332391,-8.0327,-3.1513,4.6995,-0.2100,-0.3500,-0.4900,1002.7920,-7.9966,-3.1257,4.7387,1590688504,N
59,2329453,-8.0471,-3.0939,4.7306,-0.2800,-0.1400,-0.3500,1002.7932,-7.9987,-3.1332,4.7301,1590688504,N
59,2328476,-8.0207,-3.1394,4.7713,-0.2100,-0.4200,-0.5600,1002.7936,-7.9994,-3.1287,4.7318,1590688504,N
59,2328997,-8.0327,-3.1226,4.7306,-0.0700,-0.4200,-0.2100,1002.7946,-7.9943,-3.1306,4.7394,1590688504,N
59,2328910,-8.0375,-3.1155,4.7498,-0.2100,-0.2100,-0.3500,1002.7955,-7.9955,-3.1308,4.7372,1590688504,N
58,2329667,-8.0112,-3.1561,4.7952,-0.1400,-0.2100,-0.7000,1002.7969,-7.9939,-3.1310,4.7398,1590688505,N
59,2331695,-8.0279,-3.0915,4.7330,-0.2100,-0.2100,-0.3500,1002.7984,-7.9869,-3.1363,4.7480,1590688505,N
59,2334445,-8.0518,-3.0820,4.7689,0.2100,-0.2800,-0.3500,1002.7994,-7.9899,-3.1286,4.7481,1590688505,N
58,2336785,-8.0303,-3.1585,4.7785,0.4200,-0.4200,-0.2800,1002.8013,-7.9910,-3.1173,4.7536,1590688505,N
59,2338384,-8.0830,-3.0891,4.7928,-0.1400,-0.1400,-0.2800,1002.8021,-7.9876,-3.1245,4.7545,1590688505,N
58,2338005,-8.0207,-3.1442,4.8024,-0.2800,-0.2800,-0.4200,1002.8031,-7.9897,-3.1163,4.7564,1590688505,N
59,2336444,-8.0614,-3.0748,4.7665,-0.2800,-0.1400,-0.2800,1002.8035,-7.9850,-3.1214,4.7609,1590688505,N
59,2336146,-7.9896,-3.2064,4.6995,-0.2800,0.0700,-0.4200,1002.8043,-7.9907,-3.1126,4.7571,1590688505,N
58,2337108,-8.0255,-3.1466,4.7139,-0.1400,0.2100,-0.8400,1002.8052,-7.9875,-3.1371,4.7464,1590688505,N
59,2337592,-7.9202,-3.1561,4.6851,-0.1400,-0.1400,-0.4900,1002.8063,-7.9893,-3.1418,4.7404,1590688505,N
58,2339507,-7.9657,-3.1298,4.7474,-0.1400,-0.1400,-0.6300,1002.8071,-7.9847,-3.1547,4.7396,1590688506,N
59,2342265,-7.9609,-3.1920,4.7474,0.2100,-0.0700,-0.1400,1002.8072,-7.9828,-3.1512,4.7449,1590688506,N
59,2345175,-8.0423,-3.1992,4.7569,-0.3500,0.2100,-0.4900,1002.8069,-7.9781,-3.1639,4.7445,1590688506,N
58,2346967,-8.0495,-3.1657,4.7474,0.0700,0.2100,-0.3500,1002.8063,-7.9788,-3.1682,4.7403,1590688506,N
59,2347649,-8.0423,-3.0341,4.7450,-0.1400,0.5600,-0.4200,1002.8054,-7.9840,-3.1664,4.7329,1590688506,N
58,2345232,-8.0518,-3.1561,4.6995,0.0700,0.0700,-0.5600,1002.8036,-7.9914,-3.1426,4.7362,1590688506,N
58,2342716,-8.0853,-3.0867,4.7163,-0.2100,-0.2100,0.0700,1002.8015,-7.9972,-3.1436,4.7258,1590688506,N
59,2341640,-8.0231,-3.1035,4.7880,-0.0700,-0.2800,-0.2100,1002.8000,-8.0044,-3.1312,4.7217,1590688506,N
58,2340973,-8.0518,-3.1011,4.7330,-0.2100,-0.2800,-0.3500,1002.7992,-7.9991,-3.1267,4.7337,1590688506,N
58,2340279,-8.0686,-3.1155,4.7258,0.1400,-0.2100,-0.3500,1002.7996,-8.0012,-3.1216,4.7336,1590688506,N
58,2340069,-8.0542,-3.1633,4.7163,0.0700,-0.1400,-0.2800,1002.7994,-8.0045,-3.1191,4.7297,1590688507,N
58,2339803,-8.0566,-3.0772,4.7402,0.2100,-0.2100,-0.4200,1002.7999,-8.0033,-3.1272,4.7263,1590688507,N
59,2339614,-8.0327,-3.1083,4.8024,-0.0700,-0.2100,-0.2800,1002.8007,-8.0061,-3.1175,4.7280,1590688507,N
58,2339639,-8.0542,-3.1226,4.7282,-0.0700,-0.4900,-0.1400,1002.8016,-7.9995,-3.1141,4.7413,1590688507,N
58,2338712,-8.0925,-3.0437,4.7856,-0.6300,-0.1400,-0.5600,1002.8020,-8.0011,-3.1194,4.7352,1590688507,N
58,2335384,-8.0542,-3.0987,4.7976,0.4900,-0.1400,-0.5600,1002.8024,-8.0032,-3.1018,4.7432,1590688507,N
58,2332996,-8.0734,-3.0843,4.7426,-0.2100,-0.3500,-0.4900,1002.8024,-7.9987,-3.1015,4.7511,1590688507,N
59,2332700,-8.0638,-3.0461,4.7713,0.2800,0.0700,-0.2800,1002.8024,-8.0039,-3.0956,4.7461,1590688507,N
58,2332604,-8.0327,-3.1537,4.6947,-0.0700,-0.1400,-0.2800,1002.8024,-8.0064,-3.0852,4.7486,1590688507,N
58,2332015,-8.0327,-3.0413,4.7713,-0.3500,-0.2800,-0.2800,1002.8029,-8.0066,-3.1013,4.7377,1590688507,N
58,2332409,-8.0136,-3.1394,4.7210,-0.2100,-0.2800,-0.2800,1002.8036,-8.0064,-3.0912,4.7448,1590688508,N
58,2332875,-8.0734,-3.1585,4.7809,-0.2800,-0.3500,-0.2100,1002.8038,-8.0038,-3.1031,4.7413,1590688508,N
59,2332530,-8.0255,-3.1298,4.8048,-0.2800,-0.2800,-0.1400,1002.8041,-8.0008,-3.1106,4.7415,1590688508,N
58,2332739,-8.0853,-3.1202,4.7880,-0.2800,0.0700,-0.1400,1002.8039,-7.9964,-3.1127,4.7475,1590688508,N
58,2331055,-8.0447,-3.1681,4.7474,-0.2100,-0.3500,-0.6300,1002.8041,-7.9943,-3.1137,4.7504,1590688508,N
58,2328157,-8.0758,-3.0939,4.7569,-0.1400,-0.0700,-0.2100,1002.8046,-7.9939,-3.1229,4.7450,1590688508,N
59,2327065,-8.0327,-3.1896,4.7641,-0.5600,-0.8400,-0.5600,1002.8048,-7.9938,-3.1201,4.7471,1590688508,N
59,2327600,-8.0638,-3.0939,4.8144,-0.0700,-0.3500,-0.2100,1002.8044,-7.9888,-3.1321,4.7475,1590688508,N
59,2328303,-8.0782,-3.1202,4.7545,-0.2800,-0.2800,-0.7700,1002.8044,-7.9858,-3.1259,4.7566,1590688508,N
59,2329556,-7.9992,-3.0939,4.7833,-0.0700,-0.1400,-0.2100,1002.8041,-7.9908,-3.1221,4.7507,1590688508,N
59,2331853,-8.0614,-3.1274,4.7282,-0.0700,-0.4900,-0.1400,1002.8035,-7.9873,-3.1175,4.7597,1590688509,N
59,2334583,-8.0088,-3.1035,4.7545,-0.6300,-0.4900,-0.7000,1002.8024,-7.9892,-3.1241,4.7522,1590688509,N
59,2336954,-8.0447,-3.1418,4.7282,-0.6300,0.2100,-0.7000,1002.8016,-7.9897,-3.1259,4.7501,1590688509,N
59,2338423,-8.0614,-3.0772,4.7593,-0.2100,-0.0700,-0.5600,1002.8011,-7.9915,-3.1312,4.7436,1590688509,N
59,2337379,-8.0016,-3.1561,4.7402,-0.2100,-0.2100,-0.4200,1002.8007,-7.9949,-3.1213,4.7444,1590688509,N
59,2336445,-8.1141,-3.1011,4.7833,-0.0700,-0.1400,-0.3500,1002.8012,-7.9916,-3.1301,4.7441,1590688509,N
59,2337004,-7.9848,-3.1274,4.7378,0.4200,-0.4200,-0.1400,1002.8016,-7.9950,-3.1175,4.7467,1590688509,N
59,2337600,-8.0758,-3.1418,4.8072,-0.5600,-0.3500,-0.5600,1002.8016,-7.9907,-3.1263,4.7481,1590688509,N
59,2338604,-8.0471,-3.1131,4.7282,0.0700,-0.2100,-0.0700,1002.8019,-7.9896,-3.1234,4.7520,1590688509,N
59,2340792,-7.9944,-3.1418,4.7210,-0.2800,-0.2100,-0.4200,1002.8016,-7.9931,-3.1234,4.7460,1590688509,N
59,2343627,-7.9872,-3.1035,4.7019,0.2100,-0.0700,-0.2100,1002.8016,-7.9926,-3.1282,4.7437,1590688510,N
60,2346290,-7.9681,-3.1657,4.7641,0.2100,0.0700,-0.2100,1002.8016,-7.9960,-3.1259,4.7396,1590688510,N
60,2347918,-8.0877,-3.0748,4.7091,0.0700,0.3500,-0.9100,1002.8018,-7.9873,-3.1391,4.7454,1590688510,N
60,2346853,-8.0518,-3.1537,4.7210,0.4900,0.4200,-0.2100,1002.8021,-8.0007,-3.1225,4.7338,1590688510,N
60,2343956,-8.0901,-3.1513,4.7091,-0.1400,0.4200,-0.6300,1002.8019,-8.0026,-3.1300,4.7256,1590688510,N
59,2342300,-7.9848,-3.1561,4.6947,-0.1400,-0.4200,-0.0700,1002.8020,-8.0064,-3.1314,4.7183,1590688510,N
60,2341479,-8.0925,-3.1466,4.6995,-0.2800,-0.3500,-0.1400,1002.8019,-8.0035,-3.1401,4.7174,1590688510,N
60,2340604,-8.0973,-3.0915,4.7091,-0.2800,-0.1400,-0.2800,1002.8020,-8.0087,-3.1403,4.7084,1590688510,N
60,2340049,-8.0853,-3.1920,4.7593,0.0700,-0.1400,-0.3500,1002.8022,-8.0146,-3.1293,4.7057,1590688510,N
60,2339853,-8.0925,-3.0820,4.6971,0.3500,-0.1400,-0.1400,1002.8020,-8.0102,-3.1350,4.7095,1590688510,N
60,2339605,-8.0112,-3.1370,4.6851,-0.1400,-0.1400,-0.3500,1002.8013,-8.0171,-3.1247,4.7045,1590688511,N
60,2339448,-8.0566,-3.1537,4.7593,-0.2100,-0.4200,-0.0700,1002.8006,-8.0155,-3.1296,4.7040,1590688511,N
60,2338894,-8.1308,-2.9838,4.7617,-0.4200,0.0700,-0.4200,1002.7994,-8.0114,-3.1344,4.7078,1590688511,N
60,2335860,-8.0375,-3.1801,4.6971,0.3500,-0.0700,-0.4200,1002.7987,-8.0201,-3.1012,4.7150,1590688511,N
60,2333212,-8.0806,-3.0939,4.7210,-0.2800,-0.2100,-0.4900,1002.7987,-8.0155,-3.1196,4.7107,1590688511,N
60,2332695,-8.0471,-3.1394,4.6899,0.5600,-0.2100,-0.0700,1002.7983,-8.0184,-3.1101,4.7121,1590688511,N
60,2332812,-8.0542,-3.1729,4.7378,-0.3500,-0.2100,-0.4200,1002.7986,-8.0178,-3.1189,4.7071,1590688511,N
60,2332124,-8.0662,-3.1178,4.7450,-0.0700,-0.1400,-0.4200,1002.7980,-8.0124,-3.1290,4.7096,1590688511,N
60,2332182,-8.0088,-3.1346,4.7163,-0.2100,-0.1400,-0.2800,1002.7971,-8.0120,-3.1260,4.7123,1590688511,N
60,2332473,-8.0566,-3.0939,4.7689,-0.2100,-0.2800,-0.2100,1002.7961,-8.0089,-3.1301,4.7148,1590688511,N
61,2331902,-8.0160,-3.1035,4.7952,-0.2100,-0.6300,-0.5600,1002.7965,-8.0042,-3.1250,4.7262,1590688512,N
60,2332097,-8.0973,-3.1370,4.7210,-0.2100,-0.2100,-0.5600,1002.7969,-7.9973,-3.1232,4.7392,1590688512,N
60,2330585,-8.0495,-3.1442,4.7617,-0.3500,-0.4900,-0.5600,1002.7969,-7.9999,-3.1268,4.7323,1590688512,N
60,2328968,-8.0471,-3.0843,4.7689,-0.3500,-0.3500,-0.4200,1002.7975,-7.9967,-3.1310,4.7350,1590688512,N
60,2329164,-8.0734,-3.1801,4.7904,-0.5600,-0.1400,-0.2100,1002.7969,-7.9987,-3.1226,4.7371,1590688512,N
61,2331124,-8.0112,-3.0628,4.7521,-0.0700,-0.1400,-0.7700,1002.7971,-7.9923,-3.1330,4.7412,1590688512,N
61,2333331,-8.0662,-3.1537,4.7426,-0.0700,-0.1400,-0.2100,1002.7970,-7.9947,-3.1209,4.7450,1590688512,N
61,2335945,-7.9801,-3.1250,4.7139,-0.3500,-0.1400,-0.7700,1002.7966,-7.9940,-3.1298,4.7404,1590688512,N
61,2339156,-8.0973,-3.1466,4.8000,0.1400,-0.2100,-0.5600,1002.7957,-7.9915,-3.1340,4.7417,1590688512,N
61,2342288,-8.1571,-3.1178,4.7952,0.1400,-0.4200,-0.0700,1002.7949,-7.9909,-3.1296,4.7458,1590688512,N
61,2344582,-8.1117,-3.0748,4.8120,-0.0700,-0.0700,-0.3500,1002.7944,-7.9966,-3.1202,4.7422,1590688513,N
61,2344528,-8.0255,-3.1035,4.7019,-0.1400,-0.2800,-0.4200,1002.7939,-7.9979,-3.1077,4.7482,1590688513,N
61,2342863,-7.9705,-3.1035,4.6732,0.2100,-0.1400,-0.4200,1002.7936,-8.0007,-3.1093,4.7425,1590688513,N
61,2342037,-8.0949,-3.1322,4.8239,0.0700,0.2800,-0.7000,1002.7936,-8.0024,-3.1160,4.7352,1590688513,N
61,2342782,-8.0542,-3.0030,4.7521,-4.5500,2.8000,-4.1300,1002.7941,-7.9994,-3.1514,4.7169,1590688513,N
61,2343213,-8.0518,-3.0221,5.3839,-13.9300,9.9400,-20.7200,1002.7936,-7.9712,-3.2950,4.6662,1590688513,N
62,2343242,-8.0112,-4.3119,3.1274,-51.1700,10.5000,-39.4800,1002.7937,-7.8456,-3.6573,4.6088,1590688513,N
61,2341860,-8.0566,-5.8002,4.1731,-15.3300,24.6400,-63.9100,1002.7938,-7.7537,-4.2566,4.2346,1590688513,N
62,2342767,-9.1908,-5.4700,2.4048,68.8100,-32.8300,-91.9800,1002.7949,-7.0519,-4.8021,4.8353,1590688513,N
62,2341064,-4.2855,-6.0299,4.7593,36.1200,-72.1000,-104.7200,1002.7955,-6.2198,-5.4257,5.2959,1590688513,N
62,2337944,-1.0528,-7.6905,5.3527,12.1100,-16.6600,-56.0700,1002.7968,-5.6353,-5.8468,5.4981,1590688514,N
62,2335059,-0.9308,-7.7384,4.8526,48.5800,-23.5900,-3.7800,1002.7987,-4.5997,-6.1322,6.1162,1590688514,N
62,2328357,-3.8070,-5.8672,6.6377,8.7500,-18.0600,24.1500,1002.8005,-3.9142,-6.4263,6.2890,1590688514,N
62,2324258,-3.1777,-6.0179,8.2098,-60.1300,37.7300,14.9100,1002.8013,-4.1596,-6.6603,5.8745,1590688514,N
62,2324953,-2.5029,-6.4558,4.8215,-47.1800,34.5100,22.0500,1002.8015,-4.2146,-6.6942,5.7961,1590688514,N
62,2341092,-5.2929,-8.5448,4.5153,29.1900,53.7600,66.7100,1002.8015,-4.7745,-6.2992,5.8047,1590688514,N
62,2767950,-6.4176,-6.3960,4.5846,-14.0700,18.9000,111.4400,1002.8008,-5.5705,-5.9184,5.4874,1590688514,N
62,2926595,-6.1280,-4.2425,3.6347,-19.3200,8.8900,96.1100,1002.8003,-6.2596,-5.5455,5.1220,1590688514,N
62,2391549,-11.8899,-3.3284,3.7615,24.1500,16.8000,63.1400,1002.7998,-6.8416,-4.9313,5.0045,1590688514,N
63,2366356,-9.3009,-2.4431,3.4193,-13.2300,16.4500,21.9800,1002.7999,-7.3394,-4.5738,4.6242,1590688514,N
62,2365757,-6.5970,-7.5685,5.6375,91.7700,42.2800,86.8700,1002.8007,-8.2922,-3.0758,4.2366,1590688515,N
62,2430234,-9.7508,-0.1316,1.8760,-37.0300,91.3500,80.2200,1002.8022,-8.8469,-2.7036,3.2548,1590688515,N
62,2763611,-10.0403,0.3278,-0.6867,-163.3100,24.5700,73.2200,1002.8033,-9.3503,-1.8317,2.3210,1590688515,N
62,2479563,-8.5472,0.6341,2.6130,-42.7000,-55.9300,97.7200,1002.8049,-9.5034,-1.4449,1.9412,1590688515,N
63,2351187,-7.1139,4.1468,2.5005,32.9000,-48.6500,89.2500,1002.8063,-9.6116,-0.0697,1.9447,1590688515,N
62,2343204,-6.5228,5.0417,4.7521,-3.8500,-52.3600,30.5900,1002.8077,-9.5854,0.5576,1.9950,1590688515,N
63,2345430,-5.0201,5.9318,7.0158,35.4200,3.3600,-6.0200,1002.8088,-9.6290,1.4492,1.1630,1590688515,N
63,2352307,-7.6283,5.0584,3.6730,73.9200,38.3600,23.4500,1002.8093,-9.5159,2.3686,-0.0862,1590688515,N
63,2352566,-10.7510,6.7478,3.0269,3.7100,38.0100,-5.1100,1002.8090,-6.8873,2.1058,6.6560,1590688515,N
63,2353914,-7.8676,6.6425,1.6487,-43.8900,15.6800,-67.9700,1002.8082,-7.4072,1.9332,6.1291,1590688515,N
63,2353362,-8.5328,3.4170,2.3402,12.0400,21.1400,-108.9900,1002.8082,-8.5885,2.1400,4.2224,1590688516,N
63,2357131,-10.0666,3.8524,1.9167,110.4600,16.7300,-136.4300,1002.8083,-9.3628,1.5227,2.4880,1590688516,N
63,2370802,-8.8415,0.1795,2.1775,-33.6000,-37.2400,-212.8700,1002.8078,-9.6835,-0.3035,1.5191,1590688516,N
63,2356893,-7.3819,-8.4682,2.1966,40.1100,-48.7900,-171.6400,1002.8071,-9.6356,-1.5649,0.9359,1590688516,N
63,2357575,-4.5392,-4.6875,3.0461,40.7400,-68.9500,-133.4200,1002.8078,-9.3082,-3.0330,0.5734,1590688516,N
63,2350009,-1.0528,-9.6455,2.8283,-79.2400,-45.0100,-125.0900,1002.8082,-8.8316,-4.2620,-0.0908,1590688516,N
63,2338373,0.0622,-11.1314,3.2375,89.4600,2.5200,38.5000,1002.8090,-8.6388,-4.5967,0.6420,1590688516,N
64,2336421,-3.8812,-6.1998,4.5224,-21.0000,-10.1500,16.3100,1002.8098,-8.3139,-4.9476,1.6034,1590688516,N
63,2333224,-4.8574,-6.3290,6.4750,84.9800,17.7100,37.8700,1002.8087,-8.5137,-4.6193,1.5326,1590688516,N
64,2330394,-3.5127,-5.4126,6.6473,-15.2600,18.9700,20.5100,1002.8079,-4.8179,-3.1434,7.9421,1590688516,N
64,2333394,-6.9775,-6.7286,3.6012,-6.9300,22.1200,38.7800,1002.8067,-4.9190,-3.5913,7.6862,1590688517,N
64,2334365,-3.9123,-5.5537,6.1041,-29.6100,-32.9700,63.9800,1002.8054,-5.5626,-4.1834,6.9084,1590688517,N
64,2333052,-6.1783,-5.5298,5.3312,16.9400,44.3100,129.5000,1002.8041,-6.1395,-3.8510,6.6065,1590688517,N
64,2334830,-11.8588,-4.7450,4.3358,-34.1600,30.3800,43.9600,1002.8033,-6.6254,-4.1269,5.9366,1590688517,N
63,2336897,-7.8652,-6.9942,3.1968,49.3500,126.5600,52.2200,1002.8032,-7.8380,-3.4182,4.8013,1590688517,N
64,2360442,-7.8341,-1.0169,2.8259,-15.1200,59.0800,85.4700,1002.8033,-8.5611,-3.0061,3.7203,1590688517,N
64,2379643,-9.3081,-1.3113,0.8710,-69.7200,14.9800,55.3000,1002.8035,-8.9759,-2.4771,3.0769,1590688517,N
64,2378425,-9.3392,-1.3926,1.5840,-133.2100,-2.2400,69.3700,1002.8024,-9.3168,-2.1294,2.1983,1590688517,N
64,2351010,-8.5472,-0.9452,2.4766,-67.7600,2.4500,114.3800,1002.8016,-9.5929,-1.1407,1.6867,1590688517,N
64,2347482,-7.7192,1.1198,1.5553,-3.5000,31.0100,170.5200,1002.8016,-9.7458,0.6569,0.8712,1590688517,N
64,2343749,-6.1232,11.4592,-1.1438,70.9800,86.3800,180.8800,1002.8013,-9.2643,2.9226,-1.3424,1590688518,N
64,2333693,-7.2048,7.2263,-0.4187,-151.9700,-17.4300,-45.5700,1002.8015,-9.3369,2.8733,-0.8580,1590688518,N
64,2329466,-7.4704,6.0179,0.2728,43.5400,7.8400,26.8800,1002.8024,-8.9125,3.4404,-2.2137,1590688518,N
65,2338926,-7.4608,5.7811,0.6365,-60.2700,-29.8900,-6.2300,1002.8040,-8.8847,3.3339,-2.4735,1590688518,N
64,2342539,-7.0947,5.8122,2.3378,-29.4700,-12.6000,7.7700,1002.8056,-8.7146,3.1707,-3.1895,1590688518,N
64,2345869,-7.2144,5.6016,2.4790,-56.2100,-17.2900,-2.1000,1002.8063,-8.7637,2.9858,-3.2331,1590688518,N
64,2349855,-6.9344,6.3099,3.5509,-5.1100,-9.1000,6.0200,1002.8069,-7.6586,3.0207,5.3284,1590688518,N
66,2357586,-7.0804,5.6734,3.1274,-2.0300,-13.2300,-10.2900,1002.8078,-7.6405,3.5122,5.0455,1590688518,N
65,2359391,-6.9153,5.6160,3.9290,-14.0000,-5.9500,-3.9900,1002.8086,-7.6697,3.8488,4.7468,1590688518,N
64,2355556,-7.0540,5.7404,3.5222,3.2200,-2.1700,-0.6300,1002.8093,-7.6028,4.1693,4.5810,1590688518,N
65,2352320,-7.0660,5.6782,3.6251,-8.5400,-8.3300,-3.9200,1002.8086,-7.5430,4.4051,4.4573,1590688519,N
64,2351363,-6.9631,5.4820,3.9482,-6.5100,-7.2100,-3.0800,1002.8070,-7.4772,4.6041,4.3663,1590688519,N
64,2351072,-7.0540,5.3216,4.1635,-4.1300,-5.2500,-2.3800,1002.8051,-7.3967,4.7529,4.3439,1590688519,N
64,2350963,-7.0134,5.2475,4.1109,-2.4500,-2.5900,-1.6100,1002.8032,-7.3384,4.8475,4.3382,1590688519,N
64,2351444,-6.9535,5.3575,4.1659,-3.0100,-2.8000,-1.5400,1002.8016,-7.2929,4.9195,4.3338,1590688519,N
64,2352323,-6.9894,5.3288,4.2664,-2.1700,-2.5900,-1.5400,1002.8003,-7.2384,4.9993,4.3340,1590688519,N
64,2351377,-6.9655,5.2857,4.3167,-1.5400,-1.6800,-1.1200,1002.7996,-7.1941,5.0568,4.3410,1590688519,N
64,2347775,-6.9966,5.3073,4.3167,-1.6800,-1.8900,-1.2600,1002.7989,-7.1552,5.0958,4.3596,1590688519,N
63,2345584,-6.9464,5.2522,4.3047,-2.8700,-3.7800,-1.8900,1002.7984,-7.1196,5.1219,4.3873,1590688519,N
64,2345200,-6.9559,5.1398,4.4339,-5.8800,-6.0900,-3.0100,1002.7979,-7.0865,5.1230,4.4394,1590688519,N
63,2345588,-6.9105,5.0919,4.5655,-6.1600,-6.8600,-3.2900,1002.7977,-7.0580,5.0987,4.5120,1590688520,N
64,2346114,-6.8172,4.9627,4.7474,-7.7700,-8.3300,-4.0600,1002.7977,-7.0221,5.0589,4.6117,1590688520,N
64,2347376,-6.8387,4.8814,4.9125,-8.6100,-8.9600,-4.2700,1002.7971,-6.9782,5.0008,4.7400,1590688520,N
63,2348663,-6.7860,4.7402,5.1661,-9.5900,-9.1700,-4.2700,1002.7969,-6.9370,4.9268,4.8760,1590688520,N
63,2349085,-6.7143,4.6134,5.3934,-7.6300,-7.2100,-3.3600,1002.7968,-6.8943,4.8480,5.0136,1590688520,N
63,2346572,-6.7334,4.4985,5.3958,-5.9500,-5.1100,-2.3800,1002.7968,-6.8495,4.7693,5.1486,1590688520,N
63,2344896,-6.6975,4.5224,5.5178,-4.6200,-4.6900,-2.1700,1002.7966,-6.8229,4.6926,5.2533,1590688520,N
63,2345038,-6.6329,4.4291,5.5513,-3.3600,-4.6200,-2.2400,1002.7958,-6.7871,4.6362,5.3490,1590688520,N
63,2345767,-6.6784,4.3502,5.6183,-3.9200,-4.1300,-2.1000,1002.7964,-6.7557,4.5758,5.4399,1590688520,N
63,2346730,-6.6640,4.2616,5.7930,-3.7100,-3.6400,-1.7500,1002.7969,-6.7355,4.5107,5.5188,1590688520,N
63,2348209,-6.5731,4.2903,5.7930,-2.7300,-2.7300,-1.5400,1002.7974,-6.7138,4.4414,5.6009,1590688521,N
63,2349568,-6.6138,4.3334,5.8361,-1.3300,-1.7500,-1.1900,1002.7973,-6.6885,4.4040,5.6603,1590688521,N
63,2351293,-6.5587,4.2879,5.8696,-0.1400,-1.1900,-0.8400,1002.7968,-6.6686,4.3836,5.6995,1590688521,N
64,2352284,-6.5372,4.2520,5.8720,-0.4200,-0.5600,-0.4900,1002.7962,-6.6482,4.3617,5.7400,1590688521,N
63,2349727,-6.5683,4.2377,5.8217,-0.7700,-0.8400,-0.7700,1002.7951,-6.6308,4.3363,5.7793,1590688521,N
63,2348047,-6.5731,4.2162,5.8696,-0.6300,-0.9100,-0.7000,1002.7936,-6.6243,4.3153,5.8023,1590688521,N
63,2347702,-6.5707,4.2209,5.8863,-0.4900,-0.4900,-0.4900,1002.7931,-6.6185,4.2938,5.8248,1590688521,N
64,2348287,-6.5468,4.1755,5.8840,-0.0700,-0.4900,-0.3500,1002.7927,-6.6116,4.2796,5.8431,1590688521,N
64,2349161,-6.5276,4.1539,5.8887,-0.1400,-0.4200,-0.4900,1002.7923,-6.6074,4.2611,5.8614,1590688521,N
64,2350507,-6.5037,4.2257,5.9031,-0.4200,-0.4900,-0.4200,1002.7920,-6.6016,4.2426,5.8813,1590688521,N
64,2352155,-6.5372,4.1563,5.8983,-0.2100,-0.4900,-0.1400,1002.7914,-6.5877,4.2429,5.8966,1590688522,N
64,2353719,-6.5180,4.1803,5.9055,-0.2100,-0.4200,-0.6300,1002.7917,-6.5876,4.2272,5.9080,1590688522,N
64,2355275,-6.5539,4.1898,5.9222,-0.2100,-0.2800,-0.3500,1002.7924,-6.5828,4.2209,5.9179,1590688522,N
65,2354508,-6.5133,4.1970,5.8600,-0.2800,-0.2800,-0.2800,1002.7933,-6.5805,4.2144,5.9250,1590688522,N
64,2351908,-6.5707,4.1659,5.8863,-0.2100,-0.4200,-0.4900,1002.7936,-6.5792,4.2153,5.9258,1590688522,N
65,2350777,-6.5228,4.2257,5.9270,-0.1400,-0.2100,-0.3500,1002.7933,-6.5847,4.2072,5.9254,1590688522,N
65,2351173,-6.5444,4.1827,5.9174,-0.1400,-0.3500,-0.3500,1002.7927,-6.5763,4.2113,5.9319,1590688522,N
65,2351484,-6.5157,4.1874,5.9318,-0.2100,-0.2800,-0.3500,1002.7928,-6.5755,4.2063,5.9363,1590688522,N
65,2352433,-6.5635,4.2209,5.9055,-0.2800,-0.2100,-0.3500,1002.7925,-6.5706,4.2037,5.9436,1590688522,N
65,2353560,-6.5492,4.1683,5.9677,-0.2800,-0.3500,-0.2800,1002.7922,-6.5710,4.2061,5.9415,1590688522,N
65,2354878,-6.5539,4.1539,5.9486,-0.1400,-0.2800,-0.4200,1002.7925,-6.5690,4.1970,5.9502,1590688523,N
65,2356119,-6.5659,4.1468,5.9342,-0.3500,-0.3500,-0.4200,1002.7929,-6.5696,4.1869,5.9565,1590688523,N
65,2357410,-6.6162,4.1420,5.9198,-0.3500,-0.0700,-0.4900,1002.7936,-6.5749,4.1773,5.9574,1590688523,N
65,2357533,-6.5707,4.1515,5.9414,-0.3500,-0.2100,-0.2800,1002.7943,-6.5843,4.1680,5.9536,1590688523,N
66,2354808,-6.4487,4.1611,5.8576,-0.2800,-0.2100,-0.1400,1002.7944,-6.5839,4.1646,5.9564,1590688523,N
65,2353020,-6.5492,4.1492,5.9390,-0.5600,-0.2800,-0.2100,1002.7941,-6.5759,4.1732,5.9592,1590688523,N
65,2352737,-6.4989,4.1803,5.9462,-1.4700,-0.3500,-0.4200,1002.7937,-6.5743,4.1624,5.9685,1590688523,N
65,2352847,-6.5444,4.1276,6.0060,-0.1400,-0.0700,-0.1400,1002.7931,-6.5669,4.1694,5.9718,1590688523,N
65,2353112,-6.4965,4.1037,5.9031,-0.4200,-0.3500,-0.1400,1002.7918,-6.5622,4.1593,5.9840,1590688523,N
66,2354019,-6.5755,4.1109,5.9964,-0.0700,-0.1400,-0.1400,1002.7913,-6.5645,4.1570,5.9830,1590688523,N
65,2355110,-6.5109,4.1228,6.0251,-0.0700,-0.2100,-0.1400,1002.7904,-6.5667,4.1471,5.9876,1590688524,N
66,2356230,-6.5587,4.1204,6.0060,-0.0700,0.1400,0.2100,1002.7909,-6.5585,4.1451,5.9979,1590688524,N
66,2357247,-6.5348,4.1683,5.9653,-0.0700,-0.2100,-0.0700,1002.7920,-6.5583,4.1399,6.0017,1590688524,N
65,2358332,-6.4965,4.0965,5.9988,0.4200,0.3500,0.2100,1002.7923,-6.5585,4.1509,5.9938,1590688524,N
65,2356752,-6.5180,4.1468,5.9821,0.0700,0.3500,0.2100,1002.7930,-6.5554,4.1466,6.0003,1590688524,N
65,2354442,-6.4606,4.1061,6.0084,0.0700,0.1400,0.2100,1002.7936,-6.5526,4.1511,6.0002,1590688524,N
65,2353249,-6.4965,4.1539,5.9222,0.7000,0.1400,0.2100,1002.7932,-6.5448,4.1531,6.0073,1590688524,N
65,2352905,-6.4678,4.1731,5.9844,-0.2100,0.1400,-0.1400,1002.7929,-6.5476,4.1586,6.0004,1590688524,N
65,2352649,-6.4271,4.1085,5.9988,-0.3500,-0.2100,-0.0700,1002.7926,-6.5379,4.1643,6.0071,1590688524,N
65,2352730,-6.4630,4.1276,6.0227,0.1400,0.0700,-0.0700,1002.7921,-6.5303,4.1621,6.0169,1590688524,N
65,2353077,-6.4726,4.1133,5.9749,-0.0700,-0.1400,-0.0700,1002.7919,-6.5237,4.1593,6.0260,1590688525,N
65,2353392,-6.5204,4.1252,5.9629,-0.0700,0.0700,0.0700,1002.7925,-6.5247,4.1573,6.0262,1590688525,N
65,2353904,-6.5109,4.1037,5.9581,-0.0700,0.0700,-0.0700,1002.7932,-6.5319,4.1548,6.0201,1590688525,N
64,2354371,-6.5061,4.1109,5.9653,-0.0700,0.2800,0.1400,1002.7939,-6.5384,4.1511,6.0157,1590688525,N
65,2352188,-6.5324,4.1515,5.9414,0.1400,0.2800,-0.0700,1002.7938,-6.5433,4.1492,6.0116,1590688525,N
65,2349414,-6.4989,4.0582,6.0419,-0.2100,0.0700,-0.0700,1002.7930,-6.5482,4.1524,6.0040,1590688525,N
65,2347924,-6.4941,4.1061,6.0084,0.1400,-0.0700,-0.0700,1002.7928,-6.5451,4.1380,6.0173,1590688525,N
65,2347237,-6.4869,4.1444,5.9797,0.2800,0.1400,-0.0700,1002.7930,-6.5435,4.1371,6.0198,1590688525,N
64,2346792,-6.5228,4.1635,6.0562,-0.4200,-0.0700,-0.0700,1002.7924,-6.5395,4.1411,6.0214,1590688525,N
64,2346697,-6.4630,4.1157,6.0251,-0.4200,-0.0700,0.0700,1002.7917,-6.5322,4.1422,6.0285,1590688525,N
64,2346793,-6.4965,4.0822,6.0084,-0.4200,-0.0700,0.0700,1002.7911,-6.5250,4.1403,6.0377,1590688526,N
64,2347039,-6.4726,4.0893,5.9677,0.1400,0.0700,0.0700,1002.7902,-6.5277,4.1348,6.0384,1590688526,N
64,2347411,-6.4845,4.0965,6.0299,-0.0700,0.0700,0.0700,1002.7893,-6.5299,4.1341,6.0365,1590688526,N
64,2347647,-6.5276,4.0750,6.0251,0.3500,0.0700,0.1400,1002.7883,-6.5277,4.1333,6.0395,1590688526,N
64,2346168,-6.5180,4.1300,6.0275,0.3500,0.0700,-0.0700,1002.7873,-6.5333,4.1257,6.0386,1590688526,N
64,2343161,-6.4917,4.0750,6.0156,-0.3500,0.0700,-0.1400,1002.7875,-6.5329,4.1254,6.0393,1590688526,N
64,2341079,-6.4845,4.1157,5.9701,-0.3500,-0.0700,-0.1400,1002.7878,-6.5329,4.1181,6.0442,1590688526,N
64,2340257,-6.5683,4.1515,6.0203,0.1400,-0.0700,0.0700,1002.7883,-6.5332,4.1254,6.0389,1590688526,N
63,2339584,-6.5085,4.1348,5.9677,-0.2800,-0.0700,0.0700,1002.7890,-6.5361,4.1277,6.0343,1590688526,N
64,2339119,-6.4989,4.1157,5.9868,0.2100,0.1400,0.0700,1002.7900,-6.5388,4.1353,6.0261,1590688526,N
63,2338981,-6.4678,4.0774,6.0156,-0.2100,0.1400,-0.2100,1002.7907,-6.5403,4.1341,6.0253,1590688527,N
63,2339258,-6.4678,4.0965,6.0802,-0.3500,-0.2100,-0.1400,1002.7909,-6.5352,4.1269,6.0357,1590688527,N
63,2339598,-6.4558,4.2544,6.0467,0.4900,-0.5600,-0.2100,1002.7915,-6.5242,4.1248,6.0490,1590688527,N
63,2339999,-6.4822,4.0917,6.0371,-0.1400,0.0700,-0.2100,1002.7917,-6.5107,4.1482,6.0476,1590688527,N
63,2339932,-6.4750,4.1013,6.0514,-0.4200,0.0700,-0.0700,1002.7921,-6.5118,4.1385,6.0531,1590688527,N
63,2337710,-6.5109,4.1204,6.0203,0.0700,0.0700,-0.0700,1002.7922,-6.5107,4.1345,6.0570,1590688527,N
63,2335835,-6.4678,4.0822,6.0227,0.0700,-0.0700,0.0700,1002.7927,-6.5139,4.1348,6.0534,1590688527,N
63,2335320,-6.5420,4.1037,6.0443,0.2100,0.1400,0.0700,1002.7923,-6.5149,4.1317,6.0544,1590688527,N
63,2335159,-6.4726,4.0989,6.0275,-0.0700,0.2100,-0.0700,1002.7928,-6.5218,4.1253,6.0513,1590688527,N
62,2335617,-6.4678,4.1372,6.0682,-0.0700,-0.1400,-0.1400,1002.7932,-6.5195,4.1239,6.0547,1590688527,N
63,2336417,-6.4941,4.1228,6.0538,-0.0700,-0.1400,-0.1400,1002.7942,-6.5117,4.1272,6.0609,1590688528,N
62,2337714,-6.5228,4.0989,6.0179,0.2100,-0.0700,-0.2100,1002.7944,-6.5114,4.1278,6.0608,1590688528,N
63,2339041,-6.5085,4.0893,5.9988,0.3500,0.1400,-0.2100,1002.7944,-6.5202,4.1252,6.0532,1590688528,N
62,2340228,-6.4965,4.1228,6.0203,0.2100,-0.0700,-0.1400,1002.7935,-6.5259,4.1231,6.0484,1590688528,N
62,2340846,-6.5013,4.1037,6.0562,-0.3500,0.2100,0.0700,1002.7927,-6.5253,4.1247,6.0479,1590688528,N
62,2338931,-6.5276,4.0917,6.0371,-0.1400,0.2100,-0.1400,1002.7921,-6.5249,4.1207,6.0512,1590688528,N
62,2336463,-6.4965,4.0295,6.0586,-0.1400,-0.0700,-0.1400,1002.7917,-6.5280,4.1150,6.0516,1590688528,N
62,2335252,-6.4702,4.0917,6.0682,-0.1400,-0.0700,-0.1400,1002.7912,-6.5289,4.1008,6.0604,1590688528,N
62,2334788,-6.4439,4.0702,6.0084,0.2800,0.0700,-0.1400,1002.7906,-6.5236,4.1028,6.0646,1590688528,N
61,2334164,-6.5133,4.1061,6.0514,-0.2100,-0.1400,-0.1400,1002.7898,-6.5207,4.1030,6.0676,1590688528,N
62,2334004,-6.5061,4.0654,6.0299,0.0700,-0.1400,-0.1400,1002.7891,-6.5211,4.1044,6.0663,1590688529,N
62,2334015,-6.4606,4.0989,6.0826,0.0700,0.0700,-0.1400,1002.7890,-6.5258,4.1003,6.0641,1590688529,N
62,2334031,-6.4463,4.1133,6.0347,0.0700,0.0700,-0.0700,1002.7886,-6.5178,4.1027,6.0709,1590688529,N
62,2334153,-6.5061,4.0798,6.0323,-0.0700,0.0700,-0.0700,1002.7880,-6.5128,4.1096,6.0716,1590688529,N
61,2334284,-6.5109,4.1133,6.0467,0.4200,0.2100,0.1400,1002.7877,-6.5181,4.1099,6.0658,1590688529,N
62,2332580,-6.4511,4.1061,6.0419,0.4200,0.2100,-0.1400,1002.7875,-6.5211,4.1131,6.0603,1590688529,N
61,2329228,-6.4511,4.0774,6.0969,-0.3500,-0.0700,-0.2100,1002.7874,-6.5153,4.1140,6.0660,1590688529,N
61,2327100,-6.4678,4.0941,6.0682,0.1400,-0.0700,-0.0700,1002.7874,-6.5077,4.1103,6.0766,1590688529,N
61,2326186,-6.4582,4.1085,6.0156,0.3500,-0.0700,0.1400,1002.7880,-6.5042,4.1128,6.0787,1590688529,N
61,2325540,-6.4822,4.1109,6.0156,-0.2800,-0.1400,0.1400,1002.7882,-6.5026,4.1173,6.0773,1590688529,N
61,2325185,-6.4439,4.1276,5.9964,0.2800,0.0700,0.0700,1002.7888,-6.5062,4.1224,6.0700,1590688530,N
61,2325156,-6.5061,4.1133,6.0873,0.1400,0.1400,-0.0700,1002.7903,-6.5063,4.1309,6.0641,1590688530,N
61,2325303,-6.4750,4.0965,6.0299,0.1400,0.0700,-0.0700,1002.7909,-6.5063,4.1271,6.0667,1590688530,N
61,2325398,-6.4774,4.0654,6.0682,-0.2100,-0.0700,-0.0700,1002.7916,-6.5072,4.1243,6.0676,1590688530,N
61,2325609,-6.5468,4.0654,6.1089,0.4200,0.2100,-0.1400,1002.7918,-6.5096,4.1175,6.0697,1590688530,N
60,2324549,-6.4367,4.1204,6.0156,-0.4900,-0.1400,-0.0700,1002.7917,-6.5123,4.1020,6.0773,1590688530,N
61,2321359,-6.4487,4.1444,6.0467,-0.3500,-0.0700,-0.1400,1002.7910,-6.5077,4.1101,6.0768,1590688530,N
60,2319256,-6.4845,4.0534,6.0203,0.1400,0.1400,-0.0700,1002.7915,-6.5029,4.1209,6.0746,1590688530,N
61,2318917,-6.5037,4.0726,6.0873,0.1400,0.1400,-0.0700,1002.7919,-6.5105,4.1139,6.0713,1590688530,N
60,2319403,-6.4367,4.1085,6.0993,-0.0700,0.1400,-0.1400,1002.7920,-6.5121,4.1055,6.0752,1590688530,N
60,2320070,-6.5037,4.0439,6.0778,0.0700,0.1400,-0.0700,1002.7921,-6.5027,4.1089,6.0830,1590688531,N
61,2321501,-6.4941,4.0415,6.0275,-0.0700,0.1400,-0.0700,1002.7924,-6.5079,4.0976,6.0850,1590688531,N
60,2323258,-6.5157,4.0774,6.0897,0.1400,-0.0700,-0.1400,1002.7928,-6.5147,4.0920,6.0815,1590688531,N
60,2324884,-6.5324,4.0391,6.0754,-0.0700,-0.0700,-0.0700,1002.7931,-6.5148,4.0884,6.0838,1590688531,N
60,2326526,-6.4845,4.0558,6.0395,0.1400,-0.1400,-0.2100,1002.7940,-6.5206,4.0793,6.0837,1590688531,N
60,2326920,-6.5539,4.0606,6.0491,-0.1400,0.2100,0.0700,1002.7945,-6.5222,4.0793,6.0820,1590688531,N
60,2324650,-6.4774,4.0606,6.0323,-0.1400,0.2100,-0.0700,1002.7946,-6.5309,4.0750,6.0756,1590688531,N
60,2322911,-6.4798,4.1180,6.0514,0.5600,0.0700,0.1400,1002.7960,-6.5297,4.0814,6.0725,1590688531,N
60,2322474,-6.5659,4.1013,6.0323,0.2100,0.0700,-0.0700,1002.7967,-6.5249,4.0920,6.0706,1590688531,N
60,2322196,-6.4774,4.1085,6.0371,-0.2100,-0.0700,-0.0700,1002.7975,-6.5317,4.0918,6.0633,1590688531,N
59,2321840,-6.5013,4.0247,6.0802,-0.2100,-0.0700,-0.0700,1002.7980,-6.5266,4.0976,6.0650,1590688532,N
60,2322057,-6.4463,4.1061,6.0802,-0.0700,-0.1400,-0.0700,1002.7975,-6.5260,4.0854,6.0738,1590688532,N
60,2322193,-6.4702,4.0415,6.0299,-0.2100,-0.0700,-0.0700,1002.7969,-6.5150,4.0916,6.0815,1590688532,N
60,2322351,-6.4463,4.0893,6.0467,-0.2100,-0.0700,-0.0700,1002.7963,-6.5167,4.0870,6.0827,1590688532,N
60,2322507,-6.4989,4.0702,6.0467,0.2100,0.2100,-0.0700,1002.7957,-6.5135,4.0938,6.0816,1590688532,N
59,2321821,-6.5420,4.0439,6.0730,-0.1400,0.1400,-0.0700,1002.7955,-6.5170,4.0914,6.0794,1590688532,N
60,2318184,-6.4917,4.0869,6.0826,-0.1400,-0.0700,-0.0700,1002.7952,-6.5227,4.0814,6.0800,1590688532,N
59,2315288,-6.5157,4.0822,6.0778,0.2100,0.1400,0.0700,1002.7948,-6.5195,4.0853,6.0809,1590688532,N
59,2314034,-6.4726,4.0869,6.0132,0.0700,-0.0700,0.0700,1002.7948,-6.5188,4.0859,6.0812,1590688532,N
60,2313277,-6.4822,4.0774,6.0682,0.2800,0.1400,0.0700,1002.7944,-6.5201,4.0939,6.0744,1590688532,N
59,2312770,-6.4893,4.0534,6.0754,0.2800,0.0700,0.0700,1002.7937,-6.5177,4.0954,6.0760,1590688533,N
59,2312666,-6.4750,4.0702,6.0347,-0.1400,0.0700,-0.0700,1002.7933,-6.5175,4.0890,6.0806,1590688533,N
59,2313119,-6.4606,4.0630,6.0179,0.2800,-0.2100,0.0700,1002.7928,-6.5164,4.0924,6.0794,1590688533,N
59,2313314,-6.4558,4.1133,6.0634,-0.1400,-0.2100,-0.1400,1002.7926,-6.5161,4.0924,6.0797,1590688533,N
59,2313677,-6.4606,4.0917,6.0179,0.1400,0.0700,0.0700,1002.7927,-6.5098,4.1011,6.0806,1590688533,N
59,2313562,-6.4750,4.0917,6.0538,-0.1400,0.2800,-0.0700,1002.7935,-6.5117,4.1045,6.0763,1590688533,N
59,2310447,-6.4654,4.0630,6.0467,0.1400,-0.0700,-0.0700,1002.7930,-6.5103,4.1059,6.0768,1590688533,N
59,2307436,-6.4630,4.0654,6.0562,0.2800,-0.0700,0.1400,1002.7930,-6.5094,4.1050,6.0783,1590688533,N
59,2306093,-6.4606,4.0941,6.0371,0.0700,-0.0700,0.1400,1002.7930,-6.5073,4.1033,6.0818,1590688533,N
59,2305926,-6.4893,4.0510,6.0347,0.2100,-0.0700,-0.0700,1002.7932,-6.5065,4.1074,6.0799,1590688533,N
59,2305643,-6.5228,4.0774,6.0562,-0.1400,-0.0700,-0.0700,1002.7936,-6.5112,4.1003,6.0797,1590688534,N
59,2305978,-6.4582,4.1252,6.1280,-0.1400,-0.1400,-0.1400,1002.7934,-6.5154,4.0957,6.0783,1590688534,N
59,2306617,-6.4965,4.0822,6.0084,0.2800,-0.0700,0.1400,1002.7927,-6.5025,4.1033,6.0869,1590688534,N
59,2307449,-6.4989,4.0893,6.0658,-0.2100,-0.0700,0.1400,1002.7927,-6.5081,4.1040,6.0804,1590688534,N
59,2308209,-6.4726,4.0582,6.0347,-0.0700,-0.2100,-0.1400,1002.7930,-6.5085,4.1018,6.0815,1590688534,N
59,2309140,-6.4654,4.0606,6.0514,-0.0700,0.2100,-0.1400,1002.7929,-6.5126,4.0979,6.0798,1590688534,N
59,2307548,-6.4558,4.0271,6.0730,-0.0700,-0.0700,-0.1400,1002.7923,-6.5119,4.0947,6.0827,1590688534,N
59,2305179,-6.4558,4.0534,6.0682,0.1400,-0.1400,0.1400,1002.7917,-6.5089,4.0886,6.0900,1590688534,N
59,2304094,-6.4630,4.0199,6.0969,-0.3500,-0.3500,-0.0700,1002.7914,-6.5045,4.0848,6.0972,1590688534,N
59,2304323,-6.4367,4.1013,6.0443,0.1400,0.1400,-0.1400,1002.7919,-6.5052,4.0762,6.1023,1590688534,N
59,2304897,-6.4606,4.0630,6.0227,-0.4200,0.0700,-0.1400,1002.7928,-6.5014,4.0844,6.1009,1590688535,N
58,2306002,-6.4702,4.0654,6.0945,0.0700,0.2800,-0.1400,1002.7940,-6.5069,4.0867,6.0934,1590688535,N
59,2307703,-6.4439,4.0726,6.1232,0.0700,0.1400,0.0700,1002.7960,-6.5044,4.0858,6.0967,1590688535,N
59,2309494,-6.4893,4.0822,6.0634,-0.0700,0.1400,0.0700,1002.7973,-6.4965,4.0856,6.1052,1590688535,N
59,2311102,-6.5013,4.0750,6.0586,0.1400,-0.0700,0.0700,1002.7981,-6.4988,4.0887,6.1007,1590688535,N
59,2312256,-6.4152,4.0774,6.0371,0.2800,0.3500,0.4200,1002.7988,-6.5036,4.0921,6.0933,1590688535,N
58,2310746,-6.4750,4.0702,6.1280,-0.2800,-0.1400,-0.0700,1002.7985,-6.4983,4.0958,6.0965,1590688535,N
59,2307701,-6.4223,4.0798,6.1352,-0.2800,-0.0700,0.0700,1002.7990,-6.4933,4.0902,6.1055,1590688535,N
59,2305956,-6.4750,4.1085,6.0514,-0.2800,-0.0700,0.0700,1002.7997,-6.4823,4.0898,6.1175,1590688535,N
59,2305384,-6.4893,4.0582,6.0514,0.2100,-0.0700,0.0700,1002.8008,-6.4855,4.0982,6.1085,1590688535,N
59,2304801,-6.5252,4.0367,6.1208,-0.1400,0.0700,-0.0700,1002.8021,-6.4934,4.0933,6.1034,1590688536,N
58,2304527,-6.4941,4.0845,6.0849,-0.0700,0.0700,-0.0700,1002.8027,-6.4993,4.0805,6.1057,1590688536,N
59,2304702,-6.4463,4.0774,6.0084,0.2100,0.2100,0.0700,1002.8025,-6.5014,4.0839,6.1012,1590688536,N
59,2304964,-6.4606,4.0463,6.0443,-0.2100,-0.0700,0.0700,1002.8027,-6.5022,4.0901,6.0962,1590688536,N
59,2305204,-6.4415,4.0750,6.0730,-0.1400,-0.1400,-0.1400,1002.8031,-6.5039,4.0864,6.0968,1590688536,N
59,2305515,-6.4439,4.1300,6.0826,0.3500,-0.1400,0.0700,1002.8033,-6.4988,4.0914,6.0989,1590688536,N
58,2303969,-6.4415,4.1013,6.1017,0.3500,-0.1400,-0.0700,1002.8040,-6.4919,4.1031,6.0984,1590688536,N
59,2300248,-6.4534,4.0654,6.1017,-0.5600,-0.2100,-0.1400,1002.8046,-6.4847,4.1019,6.1068,1590688536,N
59,2297742,-6.4917,4.0487,6.0084,-0.5600,-0.0700,-0.1400,1002.8053,-6.4831,4.0943,6.1136,1590688536,N
58,2297165,-6.4750,4.0510,6.0586,0.1400,-0.0700,-0.1400,1002.8050,-6.4959,4.0917,6.1018,1590688536,N
59,2296789,-6.4941,4.0510,6.0682,-0.2800,0.0700,-0.1400,1002.8049,-6.5000,4.0862,6.1010,1590688537,N
58,2296811,-6.4487,4.0774,6.1089,0.1400,0.0700,-0.1400,1002.8046,-6.5053,4.0824,6.0980,1590688537,N
59,2297367,-6.4582,4.0558,6.1065,-0.1400,0.0700,-0.0700,1002.8041,-6.4989,4.0830,6.1044,1590688537,N
59,2298247,-6.4965,4.0510,6.0610,0.1400,0.0700,-0.0700,1002.8036,-6.4966,4.0810,6.1082,1590688537,N
58,2298953,-6.5085,3.9864,6.0849,-0.1400,0.0700,-0.0700,1002.8029,-6.5027,4.0774,6.1041,1590688537,N
58,2299815,-6.5109,4.0319,6.0706,0.2800,0.1400,-0.1400,1002.8024,-6.5118,4.0635,6.1036,1590688537,N
58,2299464,-6.4558,4.0247,6.1376,-0.2100,0.1400,-0.1400,1002.8018,-6.5174,4.0582,6.1012,1590688537,N
59,2295985,-6.5157,4.0845,6.0419,-0.4200,-0.2800,-0.2100,1002.8010,-6.5082,4.0510,6.1158,1590688537,N
59,2293282,-6.4798,4.0343,5.9653,0.1400,0.1400,-0.2100,1002.8006,-6.5154,4.0595,6.1025,1590688537,N
58,2292435,-6.5204,4.0367,6.1352,0.1400,-0.1400,-0.2100,1002.7998,-6.5247,4.0641,6.0895,1590688537,N
58,2292488,-6.4487,4.0247,6.0634,-0.2100,-0.1400,-0.1400,1002.7997,-6.5215,4.0557,6.0985,1590688538,N
58,2292824,-6.5252,4.0606,6.0849,-0.2800,-0.1400,-0.1400,1002.8000,-6.5175,4.0542,6.1038,1590688538,N
59,2294019,-6.4726,4.0750,6.1256,-0.3500,-0.2100,-0.1400,1002.8009,-6.5185,4.0534,6.1032,1590688538,N
59,2295777,-6.4654,4.0104,6.1232,-0.1400,-0.1400,-0.0700,1002.8008,-6.5097,4.0573,6.1101,1590688538,N
58,2297710,-6.4439,4.0510,6.1328,0.1400,-0.1400,0.0700,1002.7997,-6.5052,4.0524,6.1181,1590688538,N
58,2299524,-6.5061,4.0343,6.0706,-0.0700,-0.0700,0.0700,1002.7994,-6.4963,4.0548,6.1259,1590688538,N
58,2300722,-6.5085,4.0152,6.1208,-0.0700,0.0700,0.1400,1002.7990,-6.5028,4.0541,6.1195,1590688538,N
58,2298766,-6.4534,4.0558,6.0586,-0.2100,-0.1400,-0.2100,1002.7989,-6.5054,4.0451,6.1227,1590688538,N
59,2296268,-6.4534,4.0152,6.0969,0.3500,-0.1400,0.3500,1002.7985,-6.5022,4.0567,6.1184,1590688538,N
58,2295461,-6.4223,3.9721,6.1089,0.0700,-0.1400,0.2800,1002.7980,-6.4987,4.0555,6.1229,1590688538,N
58,2295476,-6.4750,4.1061,6.0730,0.2100,-0.1400,-0.2100,1002.7980,-6.4964,4.0464,6.1314,1590688539,N
58,2295909,-6.5252,4.0175,6.0754,-0.1400,-0.0700,-0.2100,1002.7991,-6.4960,4.0587,6.1236,1590688539,N
59,2296845,-6.5109,4.0008,6.1065,0.0700,-0.1400,-0.0700,1002.7996,-6.5052,4.0528,6.1178,1590688539,N
59,2298258,-6.4582,4.0415,6.1376,0.2800,-0.0700,0.1400,1002.8002,-6.5089,4.0465,6.1180,1590688539,N
58,2299630,-6.4534,4.0798,6.0634,-0.1400,-0.1400,0.1400,1002.8006,-6.5002,4.0476,6.1266,1590688539,N
58,2300504,-6.5133,4.0439,6.1400,0.0700,-0.1400,-0.1400,1002.8009,-6.4984,4.0584,6.1213,1590688539,N
58,2301454,-6.3984,4.0917,6.0562,-0.0700,0.0700,0.2100,1002.8010,-6.4986,4.0550,6.1234,1590688539,N
58,2299240,-6.5180,4.0822,6.0730,0.1400,0.0700,-0.1400,1002.8016,-6.4921,4.0701,6.1203,1590688539,N
59,2295587,-6.4726,4.0654,6.0538,-0.1400,-0.2100,-0.0700,1002.8024,-6.4972,4.0721,6.1135,1590688539,N
58,2293274,-6.4750,4.0415,6.0778,-0.2100,-0.3500,-0.0700,1002.8030,-6.4978,4.0741,6.1116,1590688539,N
58,2292758,-6.4726,4.0391,6.1041,0.3500,-0.1400,-0.0700,1002.8032,-6.4999,4.0731,6.1100,1590688540,N
58,2292256,-6.4822,4.0152,6.1256,-0.2800,-0.1400,-0.0700,1002.8025,-6.4983,4.0675,6.1154,1590688540,N
58,2292436,-6.4726,4.0654,6.0706,-0.2800,-0.1400,-0.0700,1002.8014,-6.4977,4.0574,6.1228,1590688540,N
59,2292770,-6.4511,4.0319,6.1232,0.1400,-0.0700,0.1400,1002.8011,-6.4978,4.0643,6.1180,1590688540,N
58,2293658,-6.4534,4.0869,6.0419,-0.2800,-0.2100,0.1400,1002.8002,-6.4916,4.0606,6.1271,1590688540,N
58,2294190,-6.4917,4.0463,6.0897,-0.1400,-0.2800,0.1400,1002.7995,-6.4905,4.0716,6.1210,1590688540,N
58,2294722,-6.4941,4.0510,6.0682,0.4200,-0.2800,0.1400,1002.7990,-6.4929,4.0719,6.1182,1590688540,N
58,2293853,-6.4247,4.0439,6.0658,-0.1400,-0.0700,0.0700,1002.7988,-6.4974,4.0706,6.1143,1590688540,N
59,2289879,-6.4702,4.0822,6.0993,-0.3500,-0.3500,-0.1400,1002.7983,-6.4928,4.0703,6.1193,1590688540,N
58,2287110,-6.4152,4.1109,6.0610,0.1400,-0.3500,0.0700,1002.7977,-6.4891,4.0757,6.1197,1590688540,N
58,2286568,-6.4845,4.0319,6.0873,0.2800,0.0700,0.0700,1002.7977,-6.4841,4.0905,6.1151,1590688541,N
58,2286402,-6.4893,4.0750,6.0514,-0.1400,-0.0700,-0.1400,1002.7978,-6.4898,4.0807,6.1156,1590688541,N
58,2286652,-6.5037,4.0343,6.1304,-0.1400,-0.0700,-0.0700,1002.7982,-6.4951,4.0821,6.1090,1590688541,N
58,2287726,-6.4606,4.0678,6.0945,-0.2100,-0.0700,-0.2100,1002.7979,-6.4973,4.0704,6.1145,1590688541,N
58,2289394,-6.4726,4.0104,6.1280,-0.2100,-0.0700,-0.1400,1002.7977,-6.4950,4.0713,6.1164,1590688541,N
58,2291311,-6.4367,4.0391,6.0538,-0.2100,0.1400,-0.1400,1002.7979,-6.4960,4.0599,6.1228,1590688541,N
58,2293022,-6.4774,4.0271,6.0443,-0.2100,0.0700,-0.3500,1002.7982,-6.4981,4.0604,6.1203,1590688541,N
58,2294368,-6.5396,4.0271,6.0897,-0.0700,0.2800,0.1400,1002.7983,-6.5047,4.0603,6.1133,1590688541,N
58,2292386,-6.4295,4.0534,6.1041,-0.0700,-0.0700,-0.1400,1002.7976,-6.5126,4.0530,6.1098,1590688541,N
58,2289908,-6.4917,4.0391,6.1161,-0.0700,-0.0700,0.2100,1002.7961,-6.5021,4.0588,6.1171,1590688541,N
58,2289136,-6.4487,4.0606,6.1280,-0.0700,-0.0700,-0.2100,1002.7952,-6.5027,4.0547,6.1193,1590688542,N
58,2289363,-6.4654,4.0319,6.1065,0.0700,0.1400,-0.0700,1002.7943,-6.4968,4.0581,6.1232,1590688542,N
58,2290075,-6.4606,4.0391,6.0610,0.0700,-0.0700,-0.1400,1002.7935,-6.4965,4.0560,6.1250,1590688542,N
58,2291379,-6.4750,4.0415,6.0873,-0.1400,-0.0700,-0.0700,1002.7937,-6.4984,4.0574,6.1220,1590688542,N
58,2293387,-6.4463,4.0534,6.0658,0.4900,-0.1400,0.1400,1002.7940,-6.4987,4.0611,6.1192,1590688542,N
58,2295052,-6.4989,4.0917,6.1400,0.4900,-0.0700,0.0700,1002.7943,-6.4976,4.0683,6.1156,1590688542,N
58,2296609,-6.4391,4.0295,6.0826,0.4900,-0.0700,-0.1400,1002.7946,-6.4954,4.0726,6.1150,1590688542,N
58,2297756,-6.4367,4.0965,6.0969,0.4900,0.2100,0.0700,1002.7948,-6.4957,4.0730,6.1145,1590688542,N
58,2295527,-6.4941,4.0463,6.0443,0.4900,0.0700,-0.2100,1002.7944,-6.4913,4.0824,6.1129,1590688542,N
58,2292034,-6.4678,4.0774,6.0778,-0.0700,0.0700,-0.2100,1002.7948,-6.5007,4.0783,6.1056,1590688542,N
58,2290376,-6.4798,4.0080,6.0754,-0.0700,-0.2800,-0.0700,1002.7956,-6.4980,4.0808,6.1069,1590688543,N
58,2290168,-6.4750,4.0774,6.1161,0.1400,-0.0700,-0.0700,1002.7963,-6.5027,4.0716,6.1079,1590688543,N
58,2289908,-6.4463,4.0391,6.0802,-0.2800,-0.0700,-0.0700,1002.7974,-6.4982,4.0719,6.1126,1590688543,N
58,2290142,-6.4822,4.0295,6.0778,-0.2800,-0.1400,-0.0700,1002.7982,-6.4960,4.0693,6.1167,1590688543,N
58,2290890,-6.4487,4.0319,6.0538,0.2100,-0.1400,0.0700,1002.7986,-6.4990,4.0669,6.1151,1590688543,N
58,2291747,-6.4534,4.0941,6.0849,-0.0700,-0.1400,-0.0700,1002.7987,-6.4998,4.0663,6.1146,1590688543,N
58,2292457,-6.4774,4.0128,6.0586,-0.0700,-0.1400,-0.2100,1002.7982,-6.4956,4.0736,6.1142,1590688543,N
58,2293253,-6.4487,4.0247,6.0802,0.2800,0.0700,-0.1400,1002.7983,-6.5030,4.0680,6.1100,1590688543,N
58,2292130,-6.4678,4.0343,6.1161,0.2800,-0.2100,-0.1400,1002.7980,-6.5016,4.0660,6.1128,1590688543,N
58,2288726,-6.4487,4.0223,6.1017,-0.4200,-0.2100,-0.1400,1002.7983,-6.4982,4.0597,6.1207,1590688543,N
58,2286232,-6.4893,4.0534,6.0802,0.0700,-0.0700,-0.2100,1002.7987,-6.4970,4.0564,6.1241,1590688544,N
58,2285996,-6.4247,3.9960,6.1017,0.2100,-0.0700,-0.2100,1002.7993,-6.5009,4.0586,6.1186,1590688544,N
58,2286328,-6.4439,4.0965,6.0682,-0.2100,-0.0700,-0.0700,1002.8000,-6.4968,4.0518,6.1274,1590688544,N
58,2286761,-6.4702,4.0630,6.1352,0.2100,0.1400,-0.0700,1002.7997,-6.4947,4.0659,6.1203,1590688544,N
58,2287845,-6.5061,4.0032,6.1400,-0.1400,-0.0700,-0.0700,1002.7993,-6.4906,4.0649,6.1253,1590688544,N
58,2289234,-6.4678,4.0702,6.0634,0.2100,-0.2800,-0.1400,1002.7981,-6.4939,4.0534,6.1294,1590688544,N
58,2290536,-6.4582,4.0845,6.0778,-0.2800,-0.0700,-0.1400,1002.7970,-6.4954,4.0589,6.1241,1590688544,N
58,2291694,-6.4917,4.0415,6.1208,0.1400,0.1400,-0.2100,1002.7953,-6.4957,4.0672,6.1183,1590688544,N
58,2292450,-6.4654,4.0989,6.0897,-0.2800,0.0700,-0.2100,1002.7946,-6.4975,4.0605,6.1209,1590688544,N
58,2290155,-6.4271,4.0798,6.0993,-0.2800,-0.0700,-0.1400,1002.7940,-6.4943,4.0681,6.1193,1590688544,N
58,2288160,-6.4391,4.0510,6.0562,0.2100,0.0700,-0.1400,1002.7933,-6.4891,4.0751,6.1201,1590688545,N
58,2288028,-6.4582,3.9697,6.1232,0.2100,0.0700,0.3500,1002.7934,-6.4890,4.0801,6.1168,1590688545,N
58,2288670,-6.4630,4.0750,6.1113,-0.0700,0.0700,-0.2800,1002.7936,-6.4928,4.0612,6.1254,1590688545,N
58,2289902,-6.4774,4.0295,6.0945,-0.2100,-0.0700,-0.2800,1002.7939,-6.4906,4.0633,6.1264,1590688545,N
58,2291880,-6.5013,4.0774,6.1663,-0.4200,-0.1400,-0.3500,1002.7946,-6.4939,4.0561,6.1276,1590688545,N
58,2294209,-6.5252,4.0774,6.1352,-0.0700,-0.0700,-0.3500,1002.7947,-6.4916,4.0550,6.1308,1590688545,N
58,2296503,-6.4965,4.0965,6.0778,-0.3500,-0.1400,-0.2800,1002.7951,-6.4938,4.0534,6.1294,1590688545,N
58,2298499,-6.4582,4.0463,6.1687,-0.3500,-0.2800,-0.1400,1002.7957,-6.4947,4.0607,6.1238,1590688545,N
58,2299614,-6.4869,4.0774,6.0371,-0.0700,0.1400,-0.1400,1002.7960,-6.4890,4.0569,6.1323,1590688545,N
58,2297214,-6.4750,4.0295,6.1089,0.0700,0.1400,-0.1400,1002.7958,-6.4972,4.0649,6.1183,1590688545,N
58,2294727,-6.4582,4.0534,6.0802,0.0700,-0.1400,0.1400,1002.7961,-6.4960,4.0619,6.1215,1590688546,N
58,2293854,-6.4463,3.9912,6.0945,0.1400,0.1400,0.1400,1002.7974,-6.4960,4.0661,6.1188,1590688546,N
58,2293534,-6.5037,4.0510,6.1208,0.0700,-0.2100,0.0700,1002.7979,-6.4951,4.0584,6.1249,1590688546,N
58,2293506,-6.4654,4.0439,6.1472,0.0700,-0.0700,0.0700,1002.7985,-6.4961,4.0576,6.1242,1590688546,N
58,2293839,-6.4702,4.0032,6.1567,-0.2100,-0.0700,0.0700,1002.7999,-6.4905,4.0552,6.1318,1590688546,N
58,2294434,-6.4965,4.0630,6.1352,-0.1400,-0.1400,-0.0700,1002.8009,-6.4883,4.0453,6.1406,1590688546,N
58,2294766,-6.4845,4.0271,6.0682,-0.0700,-0.0700,-0.0700,1002.8015,-6.4886,4.0474,6.1390,1590688546,N
58,2295343,-6.5348,4.0199,6.1017,0.2100,0.1400,0.0700,1002.8024,-6.4959,4.0493,6.1300,1590688546,N
58,2295289,-6.4199,4.0463,6.1232,-0.2800,0.0700,-0.0700,1002.8024,-6.5045,4.0420,6.1257,1590688546,N
58,2291919,-6.4558,4.0558,6.1041,-0.2100,-0.1400,-0.0700,1002.8025,-6.4942,4.0461,6.1339,1590688546,N
58,2289008,-6.4678,4.0319,6.0395,0.2800,0.0700,0.1400,1002.8019,-6.4919,4.0535,6.1314,1590688547,N
58,2288187,-6.4774,4.0774,6.0969,0.2800,-0.0700,0.1400,1002.8015,-6.4974,4.0582,6.1226,1590688547,N
58,2288465,-6.4343,4.0343,6.0921,0.0700,-0.0700,-0.0700,1002.8013,-6.4962,4.0638,6.1201,1590688547,N
58,2288768,-6.4534,4.0223,6.1208,-0.1400,-0.1400,-0.1400,1002.8009,-6.4929,4.0623,6.1246,1590688547,N
58,2289522,-6.5061,4.0582,6.0802,-0.2100,-0.1400,-0.0700,1002.8002,-6.4902,4.0566,6.1312,1590688547,N
58,2290896,-6.5157,4.0678,6.0802,0.1400,-0.0700,-0.0700,1002.7993,-6.4963,4.0590,6.1232,1590688547,N
58,2291932,-6.4558,4.0845,6.0778,0.0700,-0.0700,0.0700,1002.7979,-6.5009,4.0624,6.1161,1590688547,N
58,2292873,-6.4487,4.0175,6.0873,-0.0700,-0.0700,-0.0700,1002.7969,-6.4976,4.0698,6.1146,1590688547,N
58,2293731,-6.4391,4.0630,6.1113,0.2100,0.4200,0.1400,1002.7964,-6.4993,4.0669,6.1147,1590688547,N
58,2291863,-6.4511,4.0175,6.0897,-0.4200,0.4200,-0.2100,1002.7958,-6.4958,4.0665,6.1187,1590688547,N
58,2288802,-6.5061,4.0439,6.0826,-0.0700,0.0700,-0.2100,1002.7952,-6.4972,4.0608,6.1210,1590688548,N
58,2287767,-6.4534,4.0606,6.1256,-0.4200,-0.1400,-0.2100,1002.7961,-6.5020,4.0563,6.1189,1590688548,N
58,2288696,-6.4199,4.0295,6.1280,0.1400,0.0700,-0.0700,1002.7969,-6.4967,4.0597,6.1223,1590688548,N
58,2289951,-6.4056,4.0391,6.0562,-0.2800,-0.1400,-0.2100,1002.7983,-6.4890,4.0561,6.1328,1590688548,N
58,2291722,-6.4319,4.0056,6.0491,-0.2800,0.0700,0.2100,1002.7994,-6.4858,4.0616,6.1325,1590688548,N
59,2294180,-6.4463,4.0152,6.1663,0.2100,0.0700,0.2100,1002.8004,-6.4894,4.0617,6.1286,1590688548,N
58,2296644,-6.4104,4.0917,6.1232,0.2800,-0.2100,0.4900,1002.8017,-6.4808,4.0584,6.1399,1590688548,N
58,2298790,-6.3912,3.9769,6.0993,0.2800,-0.2100,0.2100,1002.8028,-6.4705,4.0713,6.1423,1590688548,N
58,2300727,-6.3864,4.0199,6.1663,0.3500,0.1400,0.4200,1002.8029,-6.4695,4.0661,6.1468,1590688548,N
58,2300583,-6.4702,4.0439,6.1543,-0.0700,-0.2800,0.4200,1002.8029,-6.4572,4.0639,6.1612,1590688548,N
59,2298161,-6.4558,4.0247,6.1328,0.0700,-0.2100,0.2800,1002.8022,-6.4578,4.0621,6.1617,1590688549,N
58,2297074,-6.4511,3.9984,6.1161,0.2100,-0.3500,0.2100,1002.8022,-6.4593,4.0597,6.1617,1590688549,N
58,2296869,-6.4917,4.0056,6.1424,-0.0700,0.2800,-0.1400,1002.8020,-6.4677,4.0512,6.1585,1590688549,N
58,2297288,-6.4343,4.0630,6.1089,-0.4200,-0.0700,-0.1400,1002.8021,-6.4739,4.0403,6.1591,1590688549,N
58,2298118,-6.4726,4.0606,6.1184,0.4900,0.2100,0.1400,1002.8016,-6.4736,4.0520,6.1517,1590688549,N
59,2299517,-6.4319,4.0295,6.1424,0.0700,0.2100,0.0700,1002.8013,-6.4768,4.0559,6.1458,1590688549,N
58,2300603,-6.4678,4.0343,6.1065,-0.2100,0.0700,0.1400,1002.8013,-6.4728,4.0538,6.1514,1590688549,N
59,2301703,-6.4678,4.0343,6.1256,0.2100,-0.0700,-0.0700,1002.8011,-6.4773,4.0539,6.1466,1590688549,N
59,2302650,-6.4439,4.0439,6.1878,0.2100,0.2100,0.1400,1002.8001,-6.4799,4.0540,6.1438,1590688549,N
58,2300594,-6.4439,4.0534,6.1256,0.2100,-0.1400,-0.1400,1002.7987,-6.4729,4.0524,6.1523,1590688549,N
59,2297260,-6.4415,4.0175,6.1328,-0.1400,-0.1400,-0.0700,1002.7979,-6.4711,4.0545,6.1528,1590688550,N
59,2295296,-6.4750,4.0487,6.1065,-0.2100,-0.2800,-0.0700,1002.7975,-6.4698,4.0496,6.1573,1590688550,N
