0,2540484,-7.0732,-4.9149,4.6684,0.0700,-0.2100,-0.1400,1001.8562,-7.0920,-4.9314,4.6427,1590693232,N
0,2541571,-7.0253,-5.1135,4.6732,-0.2800,-0.2100,-0.1400,1001.8560,-7.0685,-4.9641,4.6437,1590693232,N
0,2542022,-7.1450,-4.9651,4.7163,0.0700,-0.2100,-0.2100,1001.8561,-7.0687,-4.9566,4.6515,1590693232,N
0,2147483647,-7.1234,-5.0752,4.6947,-0.2800,0.0700,-0.1400,1001.8566,-7.0620,-4.9700,4.6473,1590693233,N
0,2147483647,-7.0804,-5.0082,4.6660,-0.4200,0.2100,-0.4200,1001.8574,-7.0585,-4.9776,4.6445,1590693233,N
0,1098655,-7.1402,-4.9699,4.5775,-0.0700,0.4200,-0.3500,1001.8574,-7.0717,-4.9757,4.6264,1590693233,N
0,1289333,-7.0804,-5.0297,4.5966,-0.2800,0.1400,-0.1400,1001.8576,-7.0706,-4.9864,4.6167,1590693233,N
0,1293839,-7.1163,-5.0034,4.5344,-0.3500,0.1400,-0.1400,1001.8570,-7.0792,-4.9917,4.5976,1590693233,N
0,1995550,-7.0612,-5.0584,4.6205,-0.4200,0.0700,-0.2100,1001.8564,-7.0702,-5.0049,4.5972,1590693233,N
0,2009451,-7.0971,-5.0800,4.5846,-0.1400,-0.2100,-0.2100,1001.8569,-7.0659,-5.0168,4.5908,1590693233,N
0,2008258,-7.1043,-4.9723,4.6253,-0.3500,0.0700,0.1400,1001.8570,-7.0715,-5.0063,4.5935,1590693233,N
0,2006992,-7.0516,-5.0584,4.6493,-0.0700,-0.2800,0.3500,1001.8573,-7.0624,-5.0114,4.6020,1590693233,N
0,2005963,-7.1186,-5.0106,4.5990,-0.4900,-0.4200,-0.0700,1001.8577,-7.0654,-5.0106,4.5983,1590693233,N
0,2182335,-7.0780,-5.0130,4.7234,-0.4900,-0.2100,0.5600,1001.8577,-7.0598,-5.0031,4.6151,1590693233,N
0,2185758,-7.1067,-5.0560,4.6540,-0.2100,-0.4200,0.5600,1001.8578,-7.0585,-5.0037,4.6164,1590693234,N
0,2273359,-7.0828,-5.0704,4.6564,0.3500,-0.5600,0.4200,1001.8574,-7.0527,-5.0065,4.6222,1590693234,N
0,2276313,-7.1474,-4.9555,4.5799,0.2100,-0.2800,0.1400,1001.8575,-7.0677,-4.9927,4.6142,1590693234,N
0,2277541,-7.0828,-5.0417,4.6014,0.1400,-0.1400,0.2800,1001.8577,-7.0672,-4.9973,4.6100,1590693234,N
0,2278098,-7.1139,-5.0608,4.6493,0.4200,-0.4200,0.5600,1001.8582,-7.0653,-4.9966,4.6137,1590693234,N
0,2277009,-7.0971,-4.9962,4.6516,-0.3500,-0.4200,-0.0700,1001.8588,-7.0632,-4.9950,4.6185,1590693234,N
0,2273316,-7.0804,-4.9938,4.6014,0.4900,-0.2800,0.1400,1001.8591,-7.0656,-4.9918,4.6185,1590693234,N
0,2270787,-7.0732,-4.9819,4.6205,0.5600,-0.4900,-0.0700,1001.8597,-7.0642,-4.9883,4.6243,1590693234,N
0,2270106,-7.1139,-4.9651,4.6277,0.2100,-0.2100,0.1400,1001.8600,-7.0701,-4.9796,4.6247,1590693234,N
0,2269451,-7.0875,-5.0106,4.6277,-0.9800,-0.2100,0.1400,1001.8605,-7.0687,-4.9866,4.6192,1590693234,N
0,2268600,-7.0875,-4.9292,4.8574,-3.0100,1.0500,-0.7700,1001.8606,-7.0594,-4.9822,4.6381,1590693235,N
0,2268848,-7.1258,-4.9771,4.4985,-3.9900,1.6100,-1.2600,1001.8594,-7.0762,-5.0067,4.5859,1590693235,N
0,2269795,-7.1067,-5.0967,4.6205,-4.2000,1.7500,-1.7500,1001.8580,-7.0687,-5.0431,4.5576,1590693235,N
0,2270988,-7.1091,-5.0417,4.4124,-4.7600,4.0600,-0.9100,1001.8572,-7.0963,-5.0674,4.4871,1590693235,N
0,2268495,-7.1617,-5.3575,4.1468,-2.5200,2.1700,-1.1200,1001.8574,-7.1075,-5.1350,4.3915,1590693235,N
0,2265876,-7.1210,-5.1661,4.3047,1.4700,-0.8400,0.9800,1001.8580,-7.1138,-5.1313,4.3858,1590693235,N
0,2265125,-7.1091,-5.1517,4.5033,1.1900,-1.1900,0.2800,1001.8587,-7.1002,-5.1241,4.4160,1590693235,N
0,2266316,-6.9344,-5.1398,4.9484,-4.4800,3.9900,-3.5000,1001.8594,-7.0485,-5.1506,4.4676,1590693235,N
0,2267682,-7.2550,-4.4865,5.4796,-45.5000,27.0200,-25.6200,1001.8604,-7.0365,-5.3118,4.2945,1590693235,N
0,2270076,-8.0518,-5.5202,3.8883,-80.1500,43.9600,-49.2800,1001.8609,-6.9931,-5.8691,3.5806,1590693235,N
0,2274207,-6.6090,-8.2361,1.2754,-32.5500,24.5700,-49.5600,1001.8612,-6.6795,-6.5966,2.8352,1590693236,N
0,2299576,-5.1900,-6.6257,-0.1771,-48.2300,-4.6200,-59.2200,1001.8611,-6.0114,-7.4251,2.2140,1590693236,N
0,2326579,-3.8118,-8.3868,-1.0361,-39.4100,-19.3200,-41.6500,1001.8608,-5.1774,-8.2210,1.3347,1590693236,N
0,2335211,-3.6586,-10.2150,0.1268,-15.0500,-9.3800,-3.0100,1001.8610,-4.7323,-8.5187,1.0991,1590693236,N
0,2322748,-4.3478,-8.7841,0.2225,-18.6200,12.3900,4.5500,1001.8618,-4.4999,-8.6807,0.7533,1590693236,N
0,2300653,-3.7998,-6.8291,-0.2010,20.3000,42.9100,21.2800,1001.8626,-5.8701,-7.8298,0.6386,1590693236,N
0,2310148,-6.9224,-11.9450,-1.2084,19.6000,21.4900,34.8600,1001.8641,-7.3093,-6.5240,0.4278,1590693236,N
0,2334335,-4.3119,-7.4919,-1.0983,91.4900,1.5400,59.7800,1001.8651,-1.5220,-9.6314,1.0445,1590693236,N
0,2339947,-6.0634,-6.8052,-0.2441,-38.6400,-51.8000,52.0100,1001.8661,-7.5333,-6.2531,0.5635,1590693236,N
0,2307643,-7.2311,-6.0897,0.9619,45.1500,-44.3800,40.8100,1001.8674,-7.4921,-6.2342,1.0829,1590693236,N
0,2280632,-7.4704,-5.4628,1.6319,63.0000,-66.0800,21.4200,1001.8695,-7.4815,-6.0674,1.8399,1590693237,N
0,2277138,-6.5755,-5.2977,3.9075,64.6100,-96.6700,5.4600,1001.8720,-7.0972,-6.0107,3.1099,1590693237,N
0,2281526,-7.1330,-4.4100,8.8152,-42.5600,8.2600,7.0000,1001.8733,-7.0672,-5.9548,3.2812,1590693237,N
0,2287021,-7.0158,-3.1705,5.3264,15.4700,1.9600,6.5100,1001.8742,-7.3234,-5.2919,3.8123,1590693237,N
0,2288919,-6.6162,-4.7641,5.5059,-15.6100,1.3300,-9.1000,1001.8742,-7.1516,-5.3346,4.0703,1590693237,N
0,2291108,-6.7741,-5.4580,4.5583,-6.8600,8.3300,-8.0500,1001.8727,-7.0681,-5.4278,4.0929,1590693237,N
0,2292481,-6.6927,-5.1350,5.1972,5.3900,-2.7300,3.3600,1001.8713,-6.9986,-5.3266,4.3378,1590693237,N
0,2293770,-6.7932,-4.9579,5.1422,0.7000,-0.3500,0.4900,1001.8692,-6.9592,-5.2459,4.4967,1590693237,N
0,2295745,-6.7813,-4.9292,5.1374,1.1200,-0.2800,0.4900,1001.8671,-6.9267,-5.1747,4.6275,1590693237,N
0,2294216,-6.7741,-4.9484,5.1661,-0.2100,-0.3500,0.1400,1001.8659,-6.8920,-5.1274,4.7308,1590693237,N
0,2290828,-6.7741,-4.9986,5.1829,0.4900,-0.3500,0.4900,1001.8652,-6.8602,-5.0902,4.8163,1590693238,N
0,2288925,-6.7334,-4.9627,5.1805,0.1400,-1.1200,0.5600,1001.8640,-6.8290,-5.0598,4.8922,1590693238,N
0,2288914,-6.7358,-4.9436,5.1446,0.5600,-1.1200,0.9800,1001.8634,-6.8097,-5.0293,4.9502,1590693238,N
0,2288714,-6.7549,-4.8598,5.2259,0.0700,-0.5600,0.1400,1001.8631,-6.7949,-4.9933,5.0066,1590693238,N
0,2289236,-6.7190,-4.9364,5.1733,-0.9100,-0.5600,-0.2100,1001.8621,-6.7753,-4.9877,5.0387,1590693238,N
0,2289824,-6.7143,-4.9914,5.1135,-0.4900,-1.1200,0.1400,1001.8609,-6.7583,-4.9913,5.0580,1590693238,N
0,2291391,-6.7119,-5.0321,5.2475,-0.1400,-1.3300,0.5600,1001.8591,-6.7332,-4.9894,5.0932,1590693238,N
0,2291883,-6.7406,-4.8000,5.3312,-0.2800,0.0700,-0.0700,1001.8583,-6.7306,-4.9497,5.1352,1590693238,N
0,2290667,-6.7310,-4.9938,5.0704,-1.2600,0.3500,-0.3500,1001.8577,-6.7324,-4.9674,5.1158,1590693238,N
0,2291094,-6.7525,-4.9723,5.1924,-1.2600,0.0700,-0.0700,1001.8578,-6.7288,-4.9689,5.1189,1590693239,N
0,2292778,-6.7549,-4.9388,5.1924,-1.7500,0.7000,-0.4900,1001.8572,-6.7297,-4.9692,5.1174,1590693239,N
0,2294356,-6.7190,-5.0967,5.0800,-0.4900,0.6300,-0.8400,1001.8553,-6.7214,-4.9974,5.1009,1590693239,N
0,2297258,-6.7669,-5.0130,5.1470,-0.4900,-0.2800,-0.1400,1001.8542,-6.7197,-4.9975,5.1030,1590693239,N
0,2300664,-6.7358,-5.0297,5.1781,0.7700,-0.6300,0.3500,1001.8535,-6.7123,-4.9921,5.1180,1590693239,N
0,2302866,-6.7693,-4.9460,5.1661,0.5600,-0.0700,0.0700,1001.8523,-6.7181,-4.9757,5.1264,1590693239,N
0,2303040,-6.7406,-5.0584,5.2259,0.0700,-0.2100,-0.2100,1001.8517,-6.7055,-4.9822,5.1365,1590693239,N
0,2300834,-6.7143,-5.0058,5.1111,0.4200,-0.4900,0.6300,1001.8518,-6.7073,-4.9813,5.1352,1590693239,N
0,2299965,-6.8052,-4.9340,5.1829,-0.7000,-0.7700,0.3500,1001.8521,-6.7153,-4.9669,5.1385,1590693239,N
0,2300374,-6.7238,-5.0249,5.1039,-1.1900,-0.5600,0.5600,1001.8518,-6.7148,-4.9796,5.1269,1590693239,N
0,2301107,-6.7286,-4.9555,5.1661,-0.1400,-0.0700,0.2100,1001.8511,-6.7159,-4.9725,5.1324,1590693239,N
0,2302133,-6.8076,-4.9579,5.1637,0.2800,-0.2800,0.1400,1001.8500,-6.7235,-4.9605,5.1340,1590693240,N
0,2303038,-6.7334,-4.9914,5.1948,0.2800,-0.3500,0.2100,1001.8505,-6.7173,-4.9590,5.1436,1590693240,N
0,2304229,-6.7310,-4.9579,5.1757,-0.0700,-0.3500,0.1400,1001.8500,-6.7154,-4.9560,5.1489,1590693240,N
0,2304324,-6.7789,-4.8957,5.2044,0.2100,-0.1400,0.0700,1001.8491,-6.7219,-4.9384,5.1573,1590693240,N
0,2301072,-6.7980,-4.9866,5.1422,0.1400,-0.4900,0.2800,1001.8484,-6.7266,-4.9393,5.1504,1590693240,N
0,2298768,-6.7047,-4.9460,5.2379,-0.0700,-0.2800,0.2800,1001.8486,-6.7175,-4.9362,5.1652,1590693240,N
0,2298901,-6.7502,-4.9244,5.1446,0.3500,-0.1400,0.1400,1001.8483,-6.7232,-4.9309,5.1628,1590693240,N
0,2299466,-6.7932,-4.9484,5.1805,0.1400,-0.4900,0.2800,1001.8481,-6.7270,-4.9259,5.1627,1590693240,N
0,2299794,-6.7573,-4.9579,5.2140,0.3500,-0.3500,0.1400,1001.8488,-6.7231,-4.9238,5.1698,1590693240,N
0,2300361,-6.7813,-4.9173,5.2044,0.2100,-0.2800,0.1400,1001.8491,-6.7264,-4.9154,5.1734,1590693241,N
0,2301490,-6.8124,-4.9531,5.1900,0.0700,-0.2100,0.2100,1001.8498,-6.7317,-4.9129,5.1690,1590693241,N
0,2301992,-6.7813,-4.8909,5.1781,0.0700,-0.1400,0.2800,1001.8497,-6.7384,-4.9039,5.1687,1590693241,N
0,2298953,-6.7358,-4.9220,5.1159,0.1400,-0.4900,0.2100,1001.8502,-6.7392,-4.9082,5.1636,1590693241,N
0,2296386,-6.7358,-4.8981,5.2068,-0.2100,-0.4200,0.2100,1001.8505,-6.7354,-4.9048,5.1719,1590693241,N
0,2296384,-6.7454,-4.9603,5.1996,0.3500,-0.1400,0.1400,1001.8518,-6.7305,-4.9086,5.1746,1590693241,N
0,2297606,-6.7549,-4.9460,5.1996,0.3500,-0.2800,0.1400,1001.8531,-6.7279,-4.9090,5.1776,1590693241,N
0,2298279,-6.8076,-4.9412,5.1733,0.0700,-0.2100,0.1400,1001.8539,-6.7340,-4.9076,5.1710,1590693241,N
0,2299248,-6.7717,-4.8718,5.1924,-0.0700,-0.5600,-0.2100,1001.8552,-6.7349,-4.9006,5.1765,1590693241,N
0,2299903,-6.7597,-4.9508,5.1924,0.4900,-0.6300,0.2800,1001.8563,-6.7310,-4.9022,5.1801,1590693241,N
0,2301720,-6.7454,-4.8694,5.2618,0.8400,0.2100,-0.2800,1001.8566,-6.7284,-4.8895,5.1955,1590693241,N
0,2301543,-6.7478,-5.0106,5.2642,-0.6300,0.1400,-0.4200,1001.8566,-6.7159,-4.9078,5.1942,1590693242,N
0,2300382,-6.7454,-4.9460,5.1972,0.2800,0.2100,-0.3500,1001.8567,-6.7155,-4.9119,5.1910,1590693242,N
0,2301046,-6.8124,-4.9460,5.2068,0.2800,-0.1400,-0.4200,1001.8566,-6.7193,-4.9108,5.1871,1590693242,N
0,2303301,-6.7214,-4.9364,5.1829,-0.6300,0.2800,-0.5600,1001.8568,-6.7168,-4.9207,5.1810,1590693242,N
0,2305395,-6.7430,-4.9938,5.1757,-0.2100,0.0700,-0.3500,1001.8573,-6.7135,-4.9330,5.1734,1590693242,N
0,2308255,-6.7430,-4.9292,5.1805,-0.2100,-0.0700,-0.2800,1001.8570,-6.7146,-4.9328,5.1723,1590693242,N
0,2311508,-6.7502,-5.0130,5.1350,-0.2100,-0.1400,0.2100,1001.8569,-6.7160,-4.9441,5.1597,1590693242,N
0,2313710,-6.7430,-4.9436,5.2068,0.2800,-0.2800,0.4200,1001.8563,-6.7161,-4.9361,5.1671,1590693242,N
0,2314281,-6.7214,-4.9675,5.1637,-0.3500,-0.1400,0.4200,1001.8553,-6.7162,-4.9399,5.1633,1590693242,N
0,2311259,-6.7980,-4.9890,5.0943,0.1400,-0.4200,0.3500,1001.8547,-6.7261,-4.9430,5.1476,1590693242,N
0,2309604,-6.7741,-4.9627,5.1876,0.1400,-0.8400,0.6300,1001.8546,-6.7257,-4.9369,5.1538,1590693243,N
0,2309801,-6.8172,-4.9268,5.1924,0.1400,-0.1400,0.2800,1001.8555,-6.7339,-4.9249,5.1546,1590693243,N
0,2310014,-6.7645,-4.9531,5.1470,-0.4200,-0.3500,0.2100,1001.8563,-6.7351,-4.9285,5.1497,1590693243,N
0,2310629,-6.7597,-4.9555,5.1087,0.1400,-0.6300,0.3500,1001.8564,-6.7373,-4.9309,5.1445,1590693243,N
0,2311449,-6.7669,-4.8311,5.1829,-0.2800,-0.3500,0.0700,1001.8566,-6.7431,-4.9130,5.1539,1590693243,N
0,2312244,-6.7238,-4.9436,5.1517,-0.0700,-0.4200,0.2800,1001.8571,-6.7384,-4.9181,5.1553,1590693243,N
0,2313128,-6.8172,-4.8909,5.2379,0.8400,0.0700,0.4900,1001.8566,-6.7453,-4.8974,5.1659,1590693243,N
0,2311017,-6.6999,-4.9388,5.2427,-0.1400,-0.3500,0.0700,1001.8572,-6.7307,-4.9033,5.1794,1590693243,N
0,2307485,-6.7741,-4.9508,5.2020,0.4200,-0.1400,0.0700,1001.8577,-6.7299,-4.9040,5.1797,1590693243,N
0,2305965,-6.7406,-4.9747,5.2211,0.2100,-0.4200,-0.1400,1001.8586,-6.7203,-4.9118,5.1848,1590693243,N
0,2306447,-6.7286,-4.9125,5.1972,0.1400,-0.2100,0.0700,1001.8599,-6.7194,-4.9098,5.1878,1590693244,N
0,2306986,-6.7932,-4.8933,5.2235,0.1400,-0.3500,0.0700,1001.8606,-6.7243,-4.8997,5.1911,1590693244,N
0,2307310,-6.7980,-4.9029,5.2211,0.1400,-0.4200,0.0700,1001.8609,-6.7278,-4.8929,5.1930,1590693244,N
0,2307927,-6.7837,-4.9149,5.2092,0.2800,-0.2800,0.0700,1001.8615,-6.7298,-4.8900,5.1930,1590693244,N
72,2308456,-6.7837,-4.8455,5.1661,0.0700,-0.2800,0.0700,1001.8619,-6.7394,-4.8806,5.1895,1590693244,N
71,2309271,-6.7932,-4.8622,5.1494,-0.0700,0.3500,0.3500,1001.8613,-6.7529,-4.8742,5.1780,1590693244,N
71,2306240,-6.7286,-4.9101,5.1422,0.2800,-0.4200,0.1400,1001.8613,-6.7489,-4.8814,5.1763,1590693244,N
71,2303522,-6.7502,-4.8503,5.2116,-0.2100,-0.2800,0.1400,1001.8612,-6.7479,-4.8752,5.1835,1590693244,N
71,2303091,-6.8148,-4.9340,5.1852,0.1400,-0.2100,0.1400,1001.8607,-6.7504,-4.8781,5.1776,1590693244,N
71,2303964,-6.7621,-4.9340,5.1805,0.1400,-0.2100,0.1400,1001.8603,-6.7472,-4.8842,5.1760,1590693244,N
71,2304642,-6.7908,-4.9244,5.1900,-0.0700,-0.2800,0.1400,1001.8597,-6.7473,-4.8863,5.1739,1590693245,N
71,2305341,-6.7717,-4.9005,5.1972,0.1400,-0.2800,0.0700,1001.8590,-6.7460,-4.8847,5.1770,1590693245,N
71,2306448,-6.7573,-4.9364,5.2666,-0.0700,-0.0700,0.0700,1001.8580,-6.7372,-4.8870,5.1863,1590693245,N
71,2307024,-6.7430,-4.9173,5.2235,0.2100,-0.2800,0.0700,1001.8576,-6.7319,-4.8880,5.1922,1590693245,N
71,2307781,-6.7693,-4.8335,5.2092,0.0700,0.3500,0.4200,1001.8571,-6.7423,-4.8732,5.1926,1590693245,N
71,2305384,-6.6999,-4.9268,5.1757,0.4200,-0.4900,0.1400,1001.8564,-6.7335,-4.8827,5.1952,1590693245,N
70,2302742,-6.7789,-4.9005,5.2187,-0.1400,-0.1400,0.0700,1001.8568,-6.7350,-4.8814,5.1944,1590693245,N
71,2302146,-6.7430,-4.9101,5.2140,-0.1400,-0.4200,0.2800,1001.8566,-6.7317,-4.8836,5.1967,1590693245,N
71,2303033,-6.7645,-4.9149,5.1829,0.3500,-0.2100,0.2800,1001.8566,-6.7343,-4.8837,5.1932,1590693245,N
71,2303642,-6.7789,-4.9029,5.1733,0.3500,-0.3500,0.2800,1001.8561,-6.7387,-4.8816,5.1895,1590693245,N
70,2304646,-6.7860,-4.9173,5.1972,0.0700,-0.4200,0.0700,1001.8568,-6.7388,-4.8829,5.1881,1590693246,N
71,2305769,-6.7621,-4.9220,5.2187,0.0700,-0.4900,0.0700,1001.8561,-6.7341,-4.8853,5.1919,1590693246,N
70,2306487,-6.7813,-4.9364,5.1948,0.0700,-0.4200,0.2100,1001.8559,-6.7343,-4.8884,5.1888,1590693246,N
70,2307404,-6.7669,-4.9268,5.2283,0.7700,-0.2100,0.0700,1001.8558,-6.7313,-4.8860,5.1949,1590693246,N
70,2306128,-6.7645,-4.9292,5.2499,0.7700,-0.6300,-0.0700,1001.8557,-6.7241,-4.8847,5.2055,1590693246,N
70,2303444,-6.7813,-4.8814,5.2594,0.4200,-0.3500,-0.0700,1001.8554,-6.7241,-4.8762,5.2134,1590693246,N
70,2302921,-6.7884,-4.9412,5.1685,0.3500,-0.4900,-0.2800,1001.8546,-6.7257,-4.8843,5.2037,1590693246,N
70,2304629,-6.7071,-4.8766,5.2522,-0.2800,-0.0700,-0.1400,1001.8537,-6.7197,-4.8841,5.2117,1590693246,N
70,2306596,-6.7334,-4.9484,5.1733,-0.2100,-0.1400,-0.3500,1001.8530,-6.7171,-4.8980,5.2020,1590693246,N
70,2309021,-6.7143,-4.9292,5.1876,-0.0700,-0.0700,-0.1400,1001.8519,-6.7146,-4.9048,5.1987,1590693246,N
70,2312163,-6.7119,-4.8885,5.2427,-0.3500,-0.1400,-0.1400,1001.8502,-6.7109,-4.9028,5.2054,1590693247,N
70,2314877,-6.6927,-4.9149,5.2140,-0.0700,-0.1400,-0.2800,1001.8481,-6.7053,-4.9075,5.2082,1590693247,N
70,2316307,-6.7621,-4.9412,5.2211,0.2800,0.0700,0.0700,1001.8459,-6.7088,-4.9062,5.2050,1590693247,N
70,2316711,-6.7478,-5.0034,5.2068,-0.1400,0.0700,-0.2100,1001.8441,-6.7055,-4.9197,5.1964,1590693247,N
70,2314837,-6.7860,-4.9531,5.1972,-0.1400,-0.1400,0.0700,1001.8430,-6.7113,-4.9195,5.1891,1590693247,N
70,2314305,-6.7525,-4.9484,5.1829,-0.1400,-0.3500,-0.2100,1001.8426,-6.7113,-4.9236,5.1853,1590693247,N
70,2315109,-6.7478,-4.9316,5.1613,-0.1400,0.0700,0.0700,1001.8426,-6.7171,-4.9237,5.1776,1590693247,N
70,2315343,-6.7813,-4.9627,5.1781,-0.0700,-0.4200,0.0700,1001.8417,-6.7193,-4.9254,5.1731,1590693247,N
70,2316385,-6.7334,-4.9460,5.1829,0.2800,-0.4200,0.3500,1001.8414,-6.7183,-4.9240,5.1758,1590693247,N
70,2317738,-6.7908,-4.9125,5.2068,-0.1400,-0.3500,0.1400,1001.8413,-6.7234,-4.9158,5.1770,1590693248,N
70,2318252,-6.7765,-4.9508,5.1685,-0.1400,-0.3500,0.1400,1001.8420,-6.7261,-4.9180,5.1713,1590693248,N
70,2319051,-6.8148,-4.9316,5.1781,0.9100,-0.2100,0.3500,1001.8428,-6.7346,-4.9075,5.1703,1590693248,N
70,2317929,-6.7549,-4.9340,5.2140,-0.4900,-0.5600,0.0700,1001.8446,-6.7293,-4.9102,5.1747,1590693248,N
69,2314664,-6.7884,-4.9029,5.2211,0.4200,-0.2100,0.0700,1001.8465,-6.7318,-4.9004,5.1806,1590693248,N
70,2312792,-6.7980,-4.9005,5.1805,0.3500,-0.5600,0.0700,1001.8484,-6.7362,-4.8944,5.1807,1590693248,N
69,2312911,-6.7525,-4.8885,5.2618,-0.1400,-0.3500,0.0700,1001.8500,-6.7310,-4.8887,5.1928,1590693248,N
69,2313027,-6.7597,-4.8790,5.2116,0.1400,-0.3500,0.0700,1001.8510,-6.7318,-4.8835,5.1966,1590693248,N
69,2312908,-6.7813,-4.9292,5.1829,0.1400,-0.2800,0.0700,1001.8511,-6.7338,-4.8869,5.1909,1590693248,N
69,2313528,-6.7621,-4.9077,5.2259,-0.2800,-0.3500,0.0700,1001.8511,-6.7314,-4.8875,5.1934,1590693248,N
69,2313742,-6.7765,-4.8574,5.1733,0.2100,-0.4200,0.2800,1001.8514,-6.7388,-4.8787,5.1920,1590693249,N
69,2314240,-6.8052,-4.8455,5.2427,0.7000,-0.4200,0.3500,1001.8509,-6.7438,-4.8615,5.2016,1590693249,N
69,2312743,-6.7358,-4.9555,5.2235,0.1400,-0.2800,0.3500,1001.8499,-6.7353,-4.8726,5.2023,1590693249,N
69,2309408,-6.7908,-4.8981,5.2427,0.2800,-0.2100,0.3500,1001.8483,-6.7371,-4.8673,5.2049,1590693249,N
69,2307938,-6.7669,-4.9173,5.2355,0.4900,-0.4200,-0.2100,1001.8469,-6.7312,-4.8705,5.2095,1590693249,N
69,2308127,-6.7813,-4.8694,5.2451,-0.0700,-0.1400,-0.1400,1001.8463,-6.7326,-4.8663,5.2117,1590693249,N
69,2308316,-6.7860,-4.8981,5.2068,0.2100,-0.2800,0.0700,1001.8464,-6.7352,-4.8666,5.2080,1590693249,N
68,2308599,-6.7502,-4.9029,5.2666,-0.1400,-0.2100,0.0700,1001.8467,-6.7294,-4.8684,5.2139,1590693249,N
69,2309402,-6.7884,-4.9125,5.2451,-0.1400,-0.2800,0.0700,1001.8468,-6.7293,-4.8698,5.2127,1590693249,N
68,2309949,-6.7645,-4.9101,5.1685,-0.1400,-0.4900,0.2100,1001.8471,-6.7320,-4.8757,5.2037,1590693249,N
68,2310385,-6.8411,-4.9125,5.2140,0.5600,0.0700,0.1400,1001.8463,-6.7411,-4.8698,5.1974,1590693250,N
69,2309205,-6.7238,-4.9508,5.1948,-0.3500,-0.2100,-0.1400,1001.8452,-6.7322,-4.8859,5.1938,1590693250,N
68,2305770,-6.7502,-4.8814,5.2307,0.2800,-0.1400,-0.1400,1001.8448,-6.7303,-4.8817,5.2003,1590693250,N
68,2304181,-6.7789,-4.9675,5.2403,0.2800,-0.5600,-0.0700,1001.8452,-6.7233,-4.8886,5.2028,1590693250,N
68,2304312,-6.7765,-4.8933,5.1637,-0.3500,-0.2800,-0.0700,1001.8452,-6.7297,-4.8901,5.1931,1590693250,N
68,2304560,-6.7669,-4.9125,5.1757,0.2800,-0.4200,0.1400,1001.8453,-6.7318,-4.8901,5.1904,1590693250,N
68,2304833,-6.7597,-4.9364,5.1565,0.0700,-0.4900,-0.0700,1001.8452,-6.7311,-4.8974,5.1844,1590693250,N
68,2305810,-6.7741,-4.9866,5.2283,-0.0700,-0.7700,-0.1400,1001.8458,-6.7216,-4.9073,5.1873,1590693250,N
68,2306919,-6.7693,-4.9077,5.2140,-0.3500,-0.8400,0.2100,1001.8463,-6.7215,-4.9039,5.1908,1590693250,N
68,2308144,-6.7717,-4.9268,5.2738,-0.5600,-0.7700,0.2100,1001.8465,-6.7164,-4.9016,5.1995,1590693250,N
68,2308158,-6.7310,-4.9914,5.2570,-1.5400,-0.9100,0.1400,1001.8467,-6.7039,-4.9182,5.2000,1590693251,N
68,2305997,-6.7884,-4.8742,5.2522,0.1400,-0.5600,0.2800,1001.8467,-6.7105,-4.9013,5.2074,1590693251,N
68,2305312,-6.7406,-4.8909,5.3049,-0.3500,-0.0700,-0.2800,1001.8470,-6.7057,-4.8959,5.2187,1590693251,N
68,2306119,-6.7238,-5.0369,5.0919,-1.0500,0.1400,-0.4900,1001.8464,-6.7057,-4.9301,5.1864,1590693251,N
68,2306391,-6.7837,-4.8933,5.1781,2.1700,0.4200,0.2100,1001.8453,-6.7199,-4.9079,5.1890,1590693251,N
68,2308048,-6.7406,-4.9699,5.2666,-1.2600,0.3500,-1.7500,1001.8444,-6.7054,-4.9275,5.1892,1590693251,N
67,2310401,-6.7837,-5.0393,5.0728,1.1200,0.0700,0.3500,1001.8430,-6.7165,-4.9375,5.1653,1590693251,N
68,2311409,-6.7430,-4.8694,5.2594,2.1700,-0.1400,-0.2100,1001.8416,-6.7150,-4.9117,5.1918,1590693251,N
67,2311975,-6.7502,-4.8718,5.2187,2.1700,0.9100,-0.4200,1001.8409,-6.7217,-4.8933,5.2005,1590693251,N
68,2309149,-6.7071,-4.9699,5.2427,2.5200,0.5600,-0.6300,1001.8397,-6.7110,-4.8948,5.2128,1590693251,N
67,2306257,-6.7765,-4.9675,5.3264,-2.9400,0.4900,0.4900,1001.8388,-6.7106,-4.9058,5.2031,1590693251,N
67,2305461,-6.8507,-4.7498,5.5466,-7.4900,5.3900,-1.0500,1001.8383,-6.7361,-4.8919,5.1831,1590693252,N
67,2306034,-7.1880,-6.5013,6.3601,-13.0900,30.5900,10.9200,1001.8380,-6.8989,-4.9274,4.9291,1590693252,N
67,2308088,-6.2429,-3.7639,4.5631,-11.5500,77.2100,63.6300,1001.8376,-7.7060,-4.3258,4.2515,1590693252,N
67,2308234,-8.6548,-4.6588,2.2780,-48.4400,77.7000,79.9400,1001.8375,-8.5659,-3.7537,2.9505,1590693252,N
67,2309846,-8.8056,-1.7468,0.5695,-38.7800,50.3300,71.9600,1001.8372,-9.2265,-2.7776,1.8241,1590693252,N
67,2304560,-10.1025,-0.5575,0.0191,-48.2300,14.2800,59.4300,1001.8365,-9.5093,-2.1105,1.1355,1590693252,N
67,2297904,-9.5163,-0.6676,0.5551,-61.4600,-6.7200,26.6700,1001.8365,-9.5885,-1.7907,1.0118,1590693252,N
67,2293752,-10.0570,-0.9691,0.5647,-13.6500,-3.0800,21.2100,1001.8374,-9.6555,-1.4560,0.9069,1590693252,N
67,2295473,-8.9324,0.0048,1.2203,7.9100,-1.8200,20.6500,1001.8390,-9.7347,-0.7624,0.9076,1590693252,N
67,2297279,-9.9924,0.0766,1.0193,-2.5900,-3.9200,18.2000,1001.8403,-9.7654,-0.3558,0.8254,1590693253,N
67,2296153,-9.4158,0.3709,1.5123,-16.1000,-12.6000,21.4200,1001.8423,-9.7736,-0.0562,0.8030,1590693253,N
67,2298486,-9.7986,0.5623,0.7944,-8.5400,7.9800,30.1000,1001.8437,-9.7961,0.4063,0.2019,1590693253,N
67,2297195,-9.8776,1.6439,0.1172,27.8600,14.7700,29.5400,1001.8448,-9.5395,0.8445,-2.1105,1590693253,N
68,2296371,-9.7316,2.4048,0.5360,20.3000,8.5400,-0.6300,1001.8467,-9.2438,0.9955,3.1195,1590693253,N
67,2295519,-9.5330,1.5099,0.7394,-7.7700,-2.2400,-13.7200,1001.8486,-9.5809,0.9935,1.8412,1590693253,N
68,2292257,-9.7460,0.7561,0.2991,-3.6400,3.2900,-2.0300,1001.8497,-9.6893,0.9293,1.1931,1590693253,N
68,2289254,-9.5115,0.7705,-0.0287,-2.9400,3.5000,10.0800,1001.8517,-9.7238,0.9737,0.8185,1590693253,N
68,2288039,-9.5856,1.5338,-0.1316,0.3500,6.3000,21.7000,1001.8529,-9.7156,1.1787,0.6225,1590693253,N
68,2285953,-9.7125,2.3402,0.7107,6.5100,-3.5000,13.4400,1001.8543,-9.6695,1.4714,0.7114,1590693253,N
68,2284300,-9.7914,2.4407,0.6532,-5.9500,-4.6200,4.2000,1001.8552,-9.6367,1.6517,0.7592,1590693254,N
68,2283116,-9.3679,1.7324,-0.0383,8.5400,16.0300,-4.2000,1001.8564,-9.6920,1.4364,0.4146,1590693254,N
68,2284573,-9.6646,2.0339,-0.4762,20.0200,-1.8900,8.3300,1001.8577,-9.6926,1.4719,0.2401,1590693254,N
68,2282762,-9.5402,2.1129,-0.0550,-8.4000,-12.1100,5.6700,1001.8592,-9.6464,1.7396,0.3033,1590693254,N
68,2279180,-9.4636,2.2038,0.7537,-10.8500,-18.2700,5.0400,1001.8611,-9.5440,2.1802,0.5730,1590693254,N
68,2277747,-9.3200,2.2923,1.5170,-10.6400,-4.2000,6.7900,1001.8625,-9.4935,2.3187,0.8169,1590693254,N
69,2279381,-9.3296,2.4000,1.3424,5.3200,20.7200,8.5400,1001.8637,-9.5236,2.2156,0.7493,1590693254,N
68,2282213,-9.2937,2.6321,0.1747,17.5000,37.0300,9.6600,1001.8647,-9.6267,1.8464,0.2976,1590693254,N
68,2284704,-9.2363,2.8235,-0.9404,32.5500,42.9100,4.1300,1001.8655,-6.8718,6.9944,0.1644,1590693254,N
68,2284814,-8.9994,2.9336,-1.0385,25.6200,57.6100,-15.1900,1001.8657,-7.7062,6.0299,-0.6523,1590693254,N
68,2288152,-8.9157,2.3928,-2.2445,55.3000,90.9300,-27.8600,1001.8659,-8.6210,4.2930,-1.8490,1590693255,N
69,2309001,-8.1404,1.7061,-4.9101,98.1400,91.7000,-49.8400,1001.8652,-8.7734,3.0289,-3.1661,1590693255,N
68,2931871,-7.3412,0.0861,-5.9749,91.4900,67.5500,-101.2200,1001.8647,-8.9316,1.4269,-3.7895,1590693255,N
68,2903459,-5.4532,-0.9188,-4.5775,52.5700,55.8600,-129.6400,1001.8647,-9.1849,-0.1654,-3.4322,1590693255,N
68,2718744,-2.8211,-4.8215,-8.2313,-48.7200,54.3200,-152.4600,1001.8653,-8.8816,-2.2694,-3.4838,1590693255,N
69,3091599,-1.1318,-5.1422,-10.6098,-77.0700,10.0100,-142.1700,1001.8678,-8.1764,-3.9852,-3.6653,1590693255,N
68,3512833,-1.7492,-6.8794,-10.1815,-45.2900,-41.0200,-87.7800,1001.8700,-7.6515,-5.4355,-2.8424,1590693255,N
68,2927817,-0.8518,-6.0179,-7.3747,-19.3900,2.2400,-47.4600,1001.8729,-6.6350,-6.5154,-3.1139,1590693255,N
68,2655190,-2.1320,-4.1037,-8.9970,-16.0300,25.5500,-24.2200,1001.8760,-6.0040,-6.4607,-4.2873,1590693255,N
68,2577033,-0.6389,-3.0724,-7.8772,-75.2500,17.7100,-35.0000,1001.8804,-5.2660,-6.9037,-4.5584,1590693255,N
69,2259171,-0.6269,-3.6969,-9.2770,-80.2900,25.1300,-22.2600,1001.8835,-4.2212,-6.9965,-5.4223,1590693255,N
68,2212837,0.2800,-0.8064,-10.8634,-20.4400,8.6100,-31.3600,1001.8865,-3.0451,-8.4782,-3.8753,1590693256,N
68,2222329,0.5743,-3.0317,-8.4467,36.4000,-10.4300,-19.6000,1001.8900,-1.8494,-9.5872,-0.9142,1590693256,N
68,2222385,0.0311,-3.6084,-10.1647,-60.4800,7.2800,-18.2700,1001.8935,-1.3454,9.6798,-0.8140,1590693256,N
68,2225746,0.2297,-2.0219,-8.8965,0.5600,10.9900,-9.3800,1001.8966,-0.4505,3.2073,-9.2564,1590693256,N
68,2232115,0.3135,-2.0770,-9.1047,14.9800,3.2900,-5.6000,1001.9000,-0.3173,1.5349,-9.6806,1590693256,N
68,2319074,1.1557,-2.5675,-8.7458,12.1800,14.6300,-9.1700,1001.9033,0.0911,-0.9334,-9.7617,1590693256,N
68,2960846,1.1844,-2.0841,-9.6263,-36.8200,6.9300,2.1700,1001.9062,0.3120,-1.1528,-9.7337,1590693256,N
68,2833725,1.0169,-1.5864,-9.6646,-23.3800,14.0000,0.2100,1001.9091,0.5290,-1.2463,-9.7127,1590693256,N
68,2226992,1.4022,-1.4620,-9.5952,-24.5000,0.6300,-3.7100,1001.9121,0.6347,-1.0460,-9.7300,1590693256,N
67,2134827,1.1174,-0.7178,-9.5115,-20.1600,-14.9800,10.7100,1001.9149,0.5222,-0.6450,-9.7715,1590693256,N
67,2124558,0.9930,-0.1603,-9.4636,-1.6100,0.0700,2.0300,1001.9169,0.5788,-0.5057,-9.7765,1590693257,N
67,2133412,1.0600,-0.5049,-9.6574,13.4400,0.8400,2.7300,1001.9186,0.7122,-0.6331,-9.7602,1590693257,N
67,2149846,0.9835,-0.7944,-9.6311,-6.5100,-4.9000,3.3600,1001.9208,0.6875,-0.5887,-9.7648,1590693257,N
67,2162258,0.8710,-0.6102,-9.6311,-3.4300,-9.0300,7.4900,1001.9218,0.6189,-0.5283,-9.7728,1590693257,N
67,2170879,0.7394,-0.3254,-9.6431,5.1800,-9.0300,4.9700,1001.9228,0.5831,-0.4999,-9.7765,1590693257,N
67,2175674,0.7274,-0.6293,-9.7101,-0.2800,-1.3300,2.1000,1001.9231,0.5981,-0.5197,-9.7746,1590693257,N
67,2181701,0.6772,-0.4881,-9.5593,-7.9100,-4.0600,4.8300,1001.9238,0.5343,-0.4309,-9.7826,1590693257,N
68,2187949,0.6126,-0.3757,-9.5976,-0.9800,-4.9000,5.6000,1001.9247,0.4982,-0.3969,-9.7859,1590693257,N
67,2193130,0.5527,-0.3996,-9.5617,4.7600,-2.7300,-0.5600,1001.9255,0.5142,-0.4328,-9.7836,1590693257,N
67,2198298,0.5121,-0.4834,-9.5952,-1.1900,-1.4700,-0.1400,1001.9257,0.4956,-0.4278,-9.7848,1590693258,N
67,2205341,0.4690,-0.4929,-9.5737,-2.8700,-1.0500,0.4900,1001.9260,0.4672,-0.4121,-9.7868,1590693258,N
67,2207782,0.4929,-0.4857,-9.6407,4.9000,-0.2100,0.7700,1001.9264,0.4969,-0.4719,-9.7827,1590693258,N
67,2208351,0.5456,-0.5073,-9.6215,0.9800,-0.5600,0.2800,1001.9263,0.5081,-0.4871,-9.7814,1590693258,N
67,2209820,0.5360,-0.5097,-9.6311,1.4700,-1.1200,1.1900,1001.9261,0.5118,-0.5022,-9.7804,1590693258,N
67,2212589,0.4379,-0.6197,-9.6431,0.0700,-0.8400,1.1900,1001.9255,0.4898,-0.5226,-9.7805,1590693258,N
67,2215590,0.4475,-0.7609,-9.6407,7.6300,1.1200,4.3400,1001.9252,0.5233,-0.6443,-9.7715,1590693258,N
68,2217953,0.5288,-0.9763,-9.6383,19.2500,2.7300,6.3000,1001.9248,0.6188,-0.8982,-9.7458,1590693258,N
68,2219696,0.5719,-1.3304,-9.6957,5.7400,0.0700,4.6200,1001.9240,0.6273,-1.0257,-9.7327,1590693258,N
68,2221957,0.5240,-1.1916,-9.5833,11.7600,-6.4400,5.3900,1001.9238,0.5780,-1.1201,-9.7253,1590693258,N
68,2219912,0.4211,-1.3831,-9.4469,24.1500,-2.0300,3.9900,1001.9234,0.5856,-1.3658,-9.6934,1590693259,N
68,2217607,0.3948,-2.0770,-9.4851,5.0400,0.5600,0.1400,1001.9239,0.5682,-1.5135,-9.6725,1590693259,N
68,2215830,0.3685,-1.8520,-9.6096,14.5600,-3.5000,-1.6100,1001.9248,0.5239,-1.6428,-9.6539,1590693259,N
68,2212676,0.2704,-2.4072,-9.3655,37.8700,-2.2400,-3.7800,1001.9254,0.5224,-2.0413,-9.5776,1590693259,N
68,2209425,0.3446,-2.0411,-9.3105,-24.0800,6.0200,-21.6300,1001.9257,0.5273,-1.8447,-9.6171,1590693259,N
67,2207239,0.6437,-1.8808,-9.4397,-25.4100,4.1300,-26.0400,1001.9252,0.5756,-1.6311,-9.6529,1590693259,N
68,2204151,0.7561,-2.6465,-9.2507,24.8500,5.0400,-7.4900,1001.9257,0.7137,-2.0885,-9.5551,1590693259,N
68,2199629,0.9165,-1.3974,-9.7053,-27.4400,-7.9800,-1.1200,1001.9262,0.6426,-1.6194,-9.6507,1590693259,N
68,2191298,0.6676,-1.6463,-9.6670,-26.1100,-5.6000,-11.9000,1001.9262,0.5572,-1.3129,-9.7024,1590693259,N
68,2183602,0.6150,-0.2967,-9.4564,-5.2500,3.6400,8.8900,1001.9260,0.6193,-1.0613,-9.7294,1590693259,N
68,2178479,0.4379,-0.2680,-8.6453,11.0600,1.3300,-8.4700,1001.9257,0.6767,-1.0678,-9.7248,1590693260,N
67,2173264,0.9763,-1.9478,-10.0594,80.8500,15.4700,-6.3700,1001.9260,1.1119,-2.0263,-9.5304,1590693260,N
67,2164600,0.9715,-2.4694,-8.6333,6.1600,-6.3000,1.9600,1001.9266,1.0597,-2.1438,-9.5106,1590693260,N
67,2157572,0.9835,-1.9502,-9.2602,-31.3600,-5.5300,-0.7000,1001.9272,0.9219,-1.7935,-9.5971,1590693260,N
67,2160187,0.8088,-1.8257,-9.4205,-35.8400,-9.4500,8.2600,1001.9286,0.7222,-1.4179,-9.6767,1590693260,N
67,2169326,0.7609,-1.2658,-9.6909,-29.2600,-7.9100,26.6000,1001.9290,0.5710,-1.0936,-9.7287,1590693260,N
66,2186091,0.4834,-0.5575,-9.6096,-1.0500,-4.7600,12.8800,1001.9301,0.5087,-0.9398,-9.7482,1590693260,N
66,2197437,0.5384,-0.8806,-9.6455,6.7200,3.2900,1.9600,1001.9302,0.5612,-1.0193,-9.7374,1590693260,N
66,2210112,0.4618,-0.9906,-9.5210,7.9800,1.8900,0.9100,1001.9304,0.5788,-1.1074,-9.7267,1590693260,N
66,2213960,0.6102,-1.2730,-9.5928,10.0100,1.4700,0.4900,1001.9296,0.6230,-1.2459,-9.7072,1590693260,N
66,2215264,0.5456,-1.3376,-9.5450,7.2100,0.3500,1.5400,1001.9296,0.6270,-1.3367,-9.6949,1590693261,N
65,2217949,0.6269,-1.4572,-9.5689,3.5000,-0.9100,0.9100,1001.9294,0.6270,-1.3868,-9.6878,1590693261,N
66,2220273,0.5862,-1.3759,-9.5210,3.1500,-1.2600,1.4000,1001.9294,0.6147,-1.4071,-9.6857,1590693261,N
65,2220217,0.6078,-1.4836,-9.5258,2.8700,1.4700,0.0700,1001.9288,0.6339,-1.4654,-9.6758,1590693261,N
66,2216127,0.5432,-1.5577,-9.5091,1.8200,-0.3500,0.1400,1001.9290,0.6177,-1.4992,-9.6717,1590693261,N
65,2212360,0.4977,-1.5817,-9.5258,0.9100,-0.8400,0.4200,1001.9288,0.5887,-1.5172,-9.6707,1590693261,N
68,2210914,0.5288,-1.5673,-9.5474,-1.1200,0.7700,0.5600,1001.9276,0.5823,-1.5289,-9.6692,1590693261,N
66,2210682,0.6676,-1.6391,-9.5163,6.6500,1.8900,-0.1400,1001.9271,0.6295,-1.6360,-9.6487,1590693261,N
67,2210858,0.6173,-1.6247,-9.4851,1.2600,0.9100,-0.1400,1001.9268,0.6395,-1.6602,-9.6439,1590693261,N
67,2215302,0.6461,-1.6774,-9.4971,-2.0300,-0.7000,-0.2800,1001.9260,0.6333,-1.6418,-9.6475,1590693261,N
68,2218671,0.6508,-1.6343,-9.5019,-0.7000,0.2800,0.1400,1001.9252,0.6399,-1.6424,-9.6469,1590693261,N
67,2219851,0.6461,-1.6487,-9.4875,-0.5600,-0.6300,0.2100,1001.9243,0.6365,-1.6374,-9.6480,1590693262,N
67,2216029,0.6772,-1.6080,-9.4923,0.2800,0.2100,0.0700,1001.9233,0.6491,-1.6418,-9.6464,1590693262,N
67,2211886,0.6413,-1.6367,-9.4923,0.2100,-0.6300,0.1400,1001.9221,0.6442,-1.6412,-9.6469,1590693262,N
67,2208287,0.6269,-1.6223,-9.4421,-0.2800,-0.1400,0.1400,1001.9208,0.6416,-1.6406,-9.6471,1590693262,N
67,2205017,0.6532,-1.6534,-9.4564,0.5600,0.4200,0.1400,1001.9196,0.6510,-1.6595,-9.6433,1590693262,N
67,2202456,0.6700,-1.6654,-9.5043,-0.2100,0.4200,0.2800,1001.9190,0.6597,-1.6687,-9.6411,1590693262,N
68,2200523,0.7107,-1.6630,-9.4899,0.8400,0.2100,0.0700,1001.9192,0.6753,-1.6827,-9.6376,1590693262,N
68,2199339,0.6820,-1.6845,-9.5091,0.1400,-0.2800,-0.0700,1001.9193,0.6762,-1.6855,-9.6370,1590693262,N
68,2197813,0.6700,-1.7180,-9.5186,0.1400,-0.2800,-0.0700,1001.9194,0.6744,-1.6940,-9.6357,1590693262,N
68,2192375,0.7083,-1.7037,-9.4971,0.2800,-0.3500,-0.0700,1001.9200,0.6805,-1.6993,-9.6343,1590693263,N
68,2186862,0.6365,-1.6941,-9.4253,-0.2800,-0.8400,0.1400,1001.9197,0.6664,-1.6941,-9.6362,1590693263,N
67,2183039,0.6676,-1.7204,-9.5043,0.5600,0.2100,0.2800,1001.9205,0.6710,-1.7117,-9.6328,1590693263,N
67,2180185,0.6078,-1.7420,-9.4684,0.7000,-0.3500,0.3500,1001.9218,0.6581,-1.7263,-9.6311,1590693263,N
67,2177552,0.6461,-1.7515,-9.5019,1.3300,-0.4900,0.0700,1001.9228,0.6552,-1.7422,-9.6284,1590693263,N
67,2175193,0.6676,-1.9190,-9.4828,6.3700,2.2400,0.2100,1001.9230,0.6893,-1.8640,-9.6032,1590693263,N
67,2173854,0.7705,-2.8211,-9.2578,27.8600,-7.8400,11.9000,1001.9232,0.6708,-2.2322,-9.5256,1590693263,N
66,2171621,0.5743,-3.1609,-9.4684,31.9200,-10.4300,23.8000,1001.9238,0.5681,-2.5758,-9.4452,1590693263,N
66,2162679,0.2249,-2.5819,-9.0185,35.8400,-4.0600,27.9300,1001.9248,0.4498,-2.9079,-9.3548,1590693263,N
66,2151002,0.0215,-2.6106,-8.8295,16.1700,0.3500,12.3900,1001.9255,0.3498,-3.0583,-9.3110,1590693263,N
66,2142360,0.2871,-4.8144,-9.9637,-0.7700,-1.7500,-1.0500,1001.9268,0.3266,-3.0847,-9.3031,1590693264,N
65,2136307,0.0479,-3.9864,-8.9587,3.8500,-8.0500,10.5700,1001.9277,0.1876,-2.9274,-9.3576,1590693264,N
66,2131867,-0.0383,-4.8096,-9.3823,39.9000,5.7400,15.0500,1001.9286,0.1728,-3.9766,-8.9625,1590693264,N
66,2129602,-0.1292,-5.2068,-9.2626,65.1700,-23.7300,42.6300,1001.9290,-0.1619,-5.6655,-8.0029,1590693264,N
66,2122790,-1.1773,-5.6471,-8.3844,36.9600,-43.1900,58.9400,1001.9295,-0.8362,-5.7152,-7.9251,1590693264,N
66,2116939,-2.6943,-5.6231,-8.3079,41.6500,-52.5000,60.2000,1001.9300,-1.7366,-5.9538,-7.5965,1590693264,N
67,2109497,-3.9793,-5.3815,-7.2670,34.6500,-73.6400,53.5500,1001.9310,-2.8358,-6.1465,-7.0957,1590693264,N
66,2101879,-4.7713,-4.9173,-5.8050,29.6800,-83.1600,39.7600,1001.9310,-3.9480,-6.2163,-6.4762,1590693264,N
67,2100096,-6.1184,-4.8455,-3.9386,38.7800,-84.8400,25.6900,1001.9316,-4.9068,-6.3785,-5.6043,1590693264,N
67,2103317,-7.2359,-5.1829,-2.4837,41.3000,-73.5000,12.3200,1001.9320,-5.8690,-6.4646,-4.4648,1590693264,N
67,2109227,-7.2431,-5.1446,-1.0552,41.0200,-73.9900,3.7100,1001.9323,-6.6231,-6.4774,-3.2168,1590693265,N
67,2118793,-8.0279,-5.9103,-0.8734,40.1100,-69.7900,0.4200,1001.9312,-7.1754,-6.3209,-2.1750,1590693265,N
68,2126354,-7.3412,-5.8576,1.0768,45.5700,-96.7400,18.6200,1001.9295,-8.2424,-5.2655,-0.7122,1590693265,N
67,2136570,-6.9392,-4.7091,4.9292,1.2600,-85.9600,23.5900,1001.9269,-5.5659,-8.0558,0.5436,1590693265,N
68,2150513,-6.6473,-5.4341,5.5777,-3.9900,-39.4800,41.3000,1001.9241,-6.6683,-6.9827,1.7164,1590693265,N
68,2164850,-7.0612,-4.2209,4.7904,-14.2100,-16.1000,55.3000,1001.9213,-7.2981,-6.0854,2.4239,1590693265,N
69,2173079,-8.3797,-2.3330,3.5151,38.0100,-12.1100,46.1300,1001.9164,-8.0790,-4.6842,2.9932,1590693265,N
68,2178496,-8.3055,-2.1535,4.9819,-47.4600,1.1900,-21.7700,1001.9109,-8.0947,-4.4883,3.2404,1590693265,N
69,2185187,-8.7625,-2.1966,6.9631,-53.6900,-9.3800,-70.4900,1001.9048,-7.6495,-5.0551,3.4788,1590693265,N
69,2194136,-6.0347,-6.3960,6.0730,-79.1000,25.0600,-74.6900,1001.8989,-6.8410,-6.1307,3.4330,1590693265,N
69,2202100,-5.9916,-5.3073,3.3404,-142.5200,21.4900,-30.9400,1001.8932,-6.2193,-7.1545,2.5108,1590693266,N
69,2205753,-6.5874,-6.9511,-1.6510,-126.3500,29.1900,15.9600,1001.8876,-5.1186,-8.3374,0.6770,1590693266,N
69,2203063,-5.8935,-5.7763,-2.6489,-19.8800,75.5300,-17.4300,1001.8820,-3.3683,-9.2050,-0.3044,1590693266,N
69,2197516,-4.7737,-5.7165,-4.3406,-120.6100,73.3600,-81.4100,1001.8768,-7.5021,-6.1332,-1.5076,1590693266,N
70,2190772,-3.4409,-7.6642,-6.0275,-58.3800,40.3200,-51.4500,1001.8730,-6.0501,-7.1256,-2.9653,1590693266,N
69,2185868,-2.0602,-7.8628,-6.1998,48.5100,4.4100,-21.9100,1001.8710,-4.8403,-7.8582,-3.3152,1590693266,N
70,2185045,-1.1509,-8.1356,-5.4772,-54.8100,21.7700,-24.2200,1001.8708,-3.9223,-7.9682,-4.1585,1590693266,N
70,2193635,-5.0560,-5.5920,-7.7097,-32.6900,-34.0900,-34.1600,1001.8711,-4.1974,-7.4674,-4.7740,1590693266,N
70,2235455,-0.6317,-10.0044,-4.1180,-4.8300,-40.8100,-14.2100,1001.8724,-3.8231,-7.7689,-4.6041,1590693266,N
70,2246015,-1.3304,-5.3958,-2.5699,-46.9700,-13.0200,22.4700,1001.8731,-3.9345,-7.5208,-4.9119,1590693266,N
70,2248319,-4.7450,-7.9370,-10.6672,-84.2100,35.0000,7.2100,1001.8750,-3.8930,-6.7777,-5.9226,1590693266,N
70,2240664,-2.8451,-5.7595,-6.8602,8.8200,8.5400,1.1900,1001.8772,-3.6878,-6.7081,-6.1296,1590693267,N
70,2233831,-2.4933,-5.7165,-7.0684,-15.6100,-10.9200,0.2100,1001.8785,-3.5488,-6.5306,-6.3975,1590693267,N
70,2227349,-3.5127,-7.7839,-10.3633,15.5400,-2.3800,-0.2100,1001.8804,-3.4514,-6.5710,-6.4094,1590693267,N
71,2227835,-1.1605,-3.8501,-4.1683,15.4700,-40.9500,-2.2400,1001.8832,-3.4739,-6.7898,-6.1645,1590693267,N
70,2230871,-4.2329,-7.4560,-4.5727,26.5300,3.5000,-7.0000,1001.8864,-3.5681,-7.1405,-5.6967,1590693267,N
71,2246421,-3.0389,-6.8507,-5.6279,-30.3800,1.9600,-3.3600,1001.8893,-3.4842,-6.9956,-5.9238,1590693267,N
71,2252757,-3.3523,-6.5994,-5.9988,19.9500,2.1700,-3.9900,1001.8917,-3.4325,-7.0881,-5.8436,1590693267,N
71,2249964,-3.2399,-7.3005,-5.2905,1.8900,-1.4700,-2.3100,1001.8931,-3.4012,-7.1916,-5.7344,1590693267,N
71,2250751,-3.0508,-6.8219,-5.3049,-21.5600,21.2800,7.0000,1001.8945,-3.3324,-7.0214,-5.9804,1590693267,N
71,2249759,-3.2782,-6.7286,-6.6640,-37.2400,10.2900,4.4100,1001.8964,-3.2991,-6.6743,-6.3828,1590693268,N
71,2246204,-2.8570,-6.1711,-6.9033,-13.6500,1.7500,1.6800,1001.8979,-3.2232,-6.5006,-6.5972,1590693268,N
72,2242039,-3.0173,-6.2859,-6.7502,-0.9100,-0.4900,0.4900,1001.8985,-3.1942,-6.4658,-6.6454,1590693268,N
71,2239414,-2.8857,-6.1878,-6.7310,-3.2900,0.5600,0.9100,1001.8990,-3.1479,-6.4140,-6.7173,1590693268,N
72,2237765,-2.9982,-6.2189,-6.7837,-3.7800,-0.1400,-0.2800,1001.9001,-3.1254,-6.3703,-6.7692,1590693268,N
72,2235237,-2.8977,-6.1735,-6.7502,-1.5400,0.3500,-0.7000,1001.9009,-3.0874,-6.3520,-6.8037,1590693268,N
72,2230460,-2.9838,-6.1496,-6.9416,-3.2900,0.4900,0.5600,1001.9013,-3.0708,-6.2950,-6.8639,1590693268,N
72,2226277,-2.9192,-6.1256,-6.8100,1.1900,-0.1400,-0.4200,1001.9021,-3.0513,-6.2963,-6.8714,1590693268,N
72,2223946,-2.8403,-6.1304,-6.8961,-0.2800,-0.5600,-0.4200,1001.9025,-3.0191,-6.2855,-6.8955,1590693268,N
72,2222169,-2.9073,-6.0873,-6.8339,-0.6300,0.2100,0.1400,1001.9036,-3.0087,-6.2665,-6.9173,1590693268,N
72,2220857,-2.8929,-6.1639,-6.9033,-0.8400,-0.2800,-0.1400,1001.9047,-2.9928,-6.2565,-6.9333,1590693269,N
72,2219672,-2.8953,-6.0778,-6.7549,-0.9800,-0.3500,-0.0700,1001.9058,-2.9910,-6.2504,-6.9396,1590693269,N
72,2218730,-2.9192,-6.1065,-6.8339,1.6100,0.5600,0.5600,1001.9070,-2.9881,-6.2511,-6.9401,1590693269,N
72,2214907,-2.9216,-6.0849,-6.9631,0.2100,0.7700,0.2800,1001.9082,-2.9787,-6.2290,-6.9639,1590693269,N
72,2210398,-2.8762,-6.1113,-6.8913,0.9100,0.0700,0.1400,1001.9094,-2.9681,-6.2304,-6.9673,1590693269,N
72,2208090,-2.9025,-6.1615,-6.8291,0.9100,-0.3500,0.0700,1001.9109,-2.9672,-6.2439,-6.9555,1590693269,N
72,2206501,-2.8929,-6.1256,-6.9248,-1.1900,-0.3500,0.1400,1001.9125,-2.9617,-6.2282,-6.9720,1590693269,N
72,2204629,-2.8522,-6.1496,-6.8818,-0.3500,-0.4200,0.4200,1001.9134,-2.9526,-6.2282,-6.9758,1590693269,N
72,2203226,-2.8738,-6.0921,-6.9009,-0.5600,-0.0700,0.4200,1001.9147,-2.9488,-6.2161,-6.9882,1590693269,N
72,2202260,-2.8690,-6.1065,-6.9224,-0.9800,-0.0700,0.2100,1001.9154,-2.9422,-6.2048,-7.0010,1590693269,N
72,2200357,-2.8546,-6.0610,-6.9248,-0.8400,0.2100,-0.0700,1001.9166,-2.9331,-6.1918,-7.0163,1590693270,N
72,2196302,-2.7398,-6.0730,-6.6688,-12.0400,-0.4900,2.2400,1001.9174,-2.9259,-6.1290,-7.0742,1590693270,N
73,2192546,-3.0508,-5.8385,-7.1067,-7.6300,6.1600,2.8000,1001.9180,-2.9337,-5.9986,-7.1820,1590693270,N
73,2191899,-2.8307,-5.6614,-6.9894,-15.6100,4.0600,5.4600,1001.9191,-2.9285,-5.8302,-7.3214,1590693270,N
73,2190675,-2.9169,-5.1517,-7.7551,-56.2100,3.5000,3.8500,1001.9202,-2.8853,-5.2785,-7.7449,1590693270,N
73,2188899,-2.9910,-4.2664,-7.2885,0.8400,9.7300,6.2300,1001.9216,-2.9278,-5.0898,-7.8544,1590693270,N
73,2183048,-2.5842,-4.7019,-7.9179,-60.8300,7.5600,7.4900,1001.9228,-2.7725,-4.5253,-8.2465,1590693270,N
74,2176300,-2.3856,-4.1779,-8.3294,-22.4000,15.3300,21.0000,1001.9243,-2.6264,-4.1455,-8.4904,1590693270,N
74,2168508,-2.3354,-3.8118,-8.1787,-29.5400,21.9800,40.1800,1001.9252,-2.4837,-3.6386,-8.7614,1590693270,N
74,2160212,-1.9023,-0.9188,-7.9179,-51.3800,44.6600,44.6600,1001.9255,-2.0628,-2.5048,-9.2543,1590693270,N
74,2153759,-1.6750,-0.9906,-9.9422,-33.7400,70.5600,19.8100,1001.9259,-1.3009,-1.5841,-9.5900,1590693271,N
74,2131186,-1.1294,-1.5027,-9.9781,-55.3700,-5.5300,9.6600,1001.9266,-1.0654,-1.0733,-9.6893,1590693271,N
74,2164310,-1.2849,-0.0814,-9.7029,8.4000,-1.9600,9.4500,1001.9263,-1.2101,-0.9428,-9.6859,1590693271,N
75,2183356,-1.1031,-0.7825,-9.6120,8.5400,2.7300,1.9600,1001.9268,-1.2219,-0.9786,-9.6809,1590693271,N
75,2193784,0.1938,-1.4812,-9.8536,14.6300,14.2100,12.3200,1001.9277,-0.8606,-1.1207,-9.7043,1590693271,N
74,2199374,-0.0287,-2.9073,-9.7460,70.4900,-0.5600,32.9700,1001.9281,-1.0281,-1.9407,-9.5576,1590693271,N
75,2196022,-0.7968,-2.0243,-8.5113,37.8000,2.8000,35.1400,1001.9282,-1.1914,-2.2706,-9.4655,1590693271,N
75,2194819,-0.1340,-2.5819,-8.7075,37.6600,21.5600,14.7000,1001.9280,-0.8859,-2.4407,-9.4567,1590693271,N
75,2190862,-0.9882,-4.6469,-8.4969,82.9500,28.7000,19.3900,1001.9276,-0.9369,-3.2296,-9.2121,1590693271,N
75,2193619,-0.1747,-4.4818,-9.6742,8.6800,4.8300,1.9600,1001.9267,-0.7290,-3.2038,-9.2398,1590693271,N
75,2194863,0.3254,-5.1733,-7.2909,10.2200,-7.7700,7.7700,1001.9261,-0.6260,-3.4499,-9.1584,1590693271,N
75,2188174,-0.1340,-5.3073,-8.2648,-5.3200,-3.7800,0.2100,1001.9262,-0.5560,-3.5265,-9.1338,1590693272,N
75,2185780,-0.0096,-5.1852,-8.2074,-4.2000,0.5600,-1.4700,1001.9268,-0.4350,-3.5159,-9.1444,1590693272,N
75,2182444,-0.0215,-5.1685,-8.1523,-2.2400,-1.4000,0.1400,1001.9266,-0.3647,-3.5684,-9.1271,1590693272,N
75,2178882,0.0096,-5.1015,-8.2768,-1.3300,-0.5600,-0.1400,1001.9264,-0.2935,-3.5829,-9.1240,1590693272,N
75,2176403,-0.0096,-5.0632,-8.2217,-0.9800,-0.5600,-0.1400,1001.9263,-0.2411,-3.6125,-9.1139,1590693272,N
75,2175112,-0.0407,-5.0680,-8.2337,-0.8400,-0.6300,-0.2800,1001.9261,-0.2062,-3.6719,-9.0909,1590693272,N
75,2174062,0.0096,-5.0943,-8.2050,0.2100,-0.4200,0.4200,1001.9261,-0.1680,-3.7021,-9.0795,1590693272,N
75,2173192,-0.0024,-5.0273,-8.2409,-0.1400,-0.4200,0.1400,1001.9257,-0.1387,-3.7325,-9.0675,1590693272,N
75,2172500,-0.0431,-5.0536,-8.2505,-0.5600,-0.5600,-0.0700,1001.9255,-0.1246,-3.8280,-9.0278,1590693272,N
75,2172295,-0.0359,-5.0393,-8.2457,-0.7700,-0.1400,-0.1400,1001.9248,-0.1080,-3.8880,-9.0023,1590693273,N
75,2170236,-0.0191,-4.9914,-8.2313,-0.4200,-0.6300,0.2100,1001.9243,-0.0961,-3.9827,-8.9610,1590693273,N
75,2167552,-0.1292,-5.0512,-8.2481,-0.0700,-0.1400,-0.0700,1001.9247,-0.1050,-4.2000,-8.8611,1590693273,N
75,2165864,-0.0311,-5.0824,-8.2576,-0.2100,-0.5600,0.1400,1001.9239,-0.0952,-4.3222,-8.8023,1590693273,N
76,2164959,-0.0455,-5.0656,-8.2887,-0.4200,-0.3500,-0.0700,1001.9222,-0.0880,-4.4432,-8.7419,1590693273,N
76,2164403,-0.0455,-5.0297,-8.2074,0.0700,-0.4200,0.0700,1001.9201,-0.0832,-4.5774,-8.6724,1590693273,N
75,2163860,-0.0120,-5.0393,-8.2457,0.0700,-0.3500,0.3500,1001.9180,-0.0726,-4.6374,-8.6406,1590693273,N
75,2163550,-0.0407,-5.0656,-8.2217,-0.0700,-0.2800,0.3500,1001.9163,-0.0694,-4.7221,-8.5946,1590693273,N
76,2163311,-0.0598,-5.0154,-8.2457,-0.4900,0.0700,-0.2800,1001.9149,-0.0664,-4.7922,-8.5558,1590693273,N
76,2161071,-0.0622,-5.0752,-8.2457,-0.3500,-0.6300,0.3500,1001.9141,-0.0712,-4.9475,-8.4669,1590693273,N
76,2158682,-0.0646,-5.0034,-8.2074,-0.3500,-0.1400,0.0700,1001.9141,-0.0713,-4.9941,-8.4394,1590693274,N
75,2157311,0.0191,-5.0010,-8.2385,-0.2100,-0.4200,0.1400,1001.9147,-0.0564,-5.0735,-8.3921,1590693274,N
76,2156664,-0.0550,-5.0560,-8.2648,-0.4200,-0.4900,0.1400,1001.9152,-0.0600,-5.1792,-8.3272,1590693274,N
76,2156120,-0.0861,-4.9986,-8.2217,0.1400,-0.3500,0.0700,1001.9160,-0.0681,-5.2230,-8.2998,1590693274,N
76,2155551,-0.0861,-5.0154,-8.2361,0.2800,-0.2800,0.1400,1001.9166,-0.0743,-5.2314,-8.2944,1590693274,N
75,2155243,-0.0670,-5.0345,-8.2385,-0.1400,-0.3500,0.1400,1001.9167,-0.0758,-5.2573,-8.2780,1590693274,N
76,2155130,-0.0885,-5.1111,-8.2528,-0.2100,-0.3500,-0.0700,1001.9163,-0.0806,-5.3042,-8.2480,1590693274,N
76,2153253,-0.0574,-5.0249,-8.2576,-0.2100,-0.5600,0.4900,1001.9164,-0.0813,-5.3085,-8.2452,1590693274,N
76,2151212,-0.0383,-5.0560,-8.2696,0.3500,-0.2100,0.3500,1001.9165,-0.0753,-5.2837,-8.2612,1590693274,N
75,2151800,-0.0837,-5.0584,-8.2361,-0.6300,-0.7000,0.3500,1001.9164,-0.0829,-5.3254,-8.2343,1590693274,N
76,2153352,-0.0574,-5.0776,-8.2840,-0.5600,-0.6300,0.0700,1001.9162,-0.0822,-5.3930,-8.1902,1590693275,N
75,2155384,-0.0574,-5.0512,-8.2672,0.1400,-0.2800,0.2100,1001.9165,-0.0799,-5.3727,-8.2035,1590693275,N
75,2158497,-0.0431,-5.0154,-8.2648,-0.4900,-0.4200,0.0700,1001.9175,-0.0755,-5.4020,-8.1843,1590693275,N
75,2160218,-0.0861,-5.0608,-8.2098,-0.6300,-0.5600,-0.2100,1001.9189,-0.0808,-5.4635,-8.1433,1590693275,N
76,2161136,-0.1364,-5.0082,-8.1954,-0.7700,-0.2800,-0.2800,1001.9208,-0.0935,-5.4215,-8.1712,1590693275,N
75,2159950,-0.0502,-5.0728,-8.2409,-0.7000,-0.9100,0.0700,1001.9221,-0.0909,-5.5175,-8.1068,1590693275,N
75,2157580,-0.0502,-4.9938,-8.2959,-0.8400,-0.3500,-0.4200,1001.9227,-0.0836,-5.5647,-8.0745,1590693275,N
75,2157258,-0.0957,-5.0106,-8.2744,-0.3500,-0.6300,-0.0700,1001.9221,-0.0901,-5.5533,-8.0823,1590693275,N
76,2157081,-0.0646,-5.0345,-8.2409,-0.4900,-0.2100,-0.2800,1001.9218,-0.0857,-5.5499,-8.0847,1590693275,N
75,2156718,-0.0742,-5.0321,-8.2457,-0.1400,-0.3500,-0.2800,1001.9218,-0.0849,-5.5598,-8.0779,1590693275,N
75,2156545,-0.1053,-5.0130,-8.2433,-0.1400,-0.2800,0.0700,1001.9219,-0.0915,-5.4752,-8.1353,1590693276,N
75,2156199,-0.0742,-4.9723,-8.2720,-0.3500,-0.3500,-0.1400,1001.9216,-0.0901,-5.4678,-8.1403,1590693276,N
76,2156119,-0.1029,-5.0154,-8.2600,0.2100,-0.1400,-0.1400,1001.9209,-0.0935,-5.4172,-8.1741,1590693276,N
75,2155224,-0.0598,-4.9675,-8.2863,0.3500,-0.1400,-0.1400,1001.9211,-0.0874,-5.4034,-8.1833,1590693276,N
76,2151997,-0.0909,-4.9795,-8.3007,-0.2100,-0.1400,-0.1400,1001.9218,-0.0889,-5.3629,-8.2098,1590693276,N
75,2150660,-0.0933,-4.9555,-8.2887,-0.0700,-0.3500,0.1400,1001.9229,-0.0928,-5.3286,-8.2321,1590693276,N
76,2151279,-0.0861,-5.0201,-8.2505,0.0700,-0.2100,-0.1400,1001.9236,-0.0927,-5.3314,-8.2303,1590693276,N
76,2151908,-0.0550,-4.9723,-8.2576,0.1400,-0.2800,0.0700,1001.9243,-0.0874,-5.3324,-8.2297,1590693276,N
76,2151873,-0.0479,-4.9842,-8.2528,0.2100,-0.1400,0.0700,1001.9249,-0.0808,-5.3164,-8.2401,1590693276,N
76,2151753,-0.0933,-5.0010,-8.2600,0.2100,0.2800,0.0700,1001.9258,-0.0821,-5.2054,-8.3107,1590693276,N
76,2151091,-0.0981,-5.0225,-8.2696,-0.2100,-0.0700,-0.0700,1001.9259,-0.0858,-5.1957,-8.3167,1590693276,N
76,2150990,-0.0981,-5.0130,-8.2959,-0.6300,0.2800,-0.2800,1001.9252,-0.0857,-5.1461,-8.3475,1590693277,N
76,2148972,-0.0694,-5.0177,-8.2983,-0.2800,-0.4200,0.2100,1001.9246,-0.0861,-5.1803,-8.3263,1590693277,N
75,2147418,-0.1005,-4.9866,-8.2552,-0.0700,0.0700,0.2100,1001.9240,-0.0895,-5.1210,-8.3629,1590693277,N
76,2148037,-0.0861,-5.0608,-8.2840,-0.2800,-0.0700,0.1400,1001.9241,-0.0899,-5.1143,-8.3670,1590693277,N
75,2149811,-0.0766,-4.9819,-8.2265,-0.3500,-0.1400,-0.1400,1001.9241,-0.0880,-5.1432,-8.3493,1590693277,N
76,2150485,-0.0526,-5.0297,-8.2648,-0.3500,-0.1400,0.0700,1001.9239,-0.0822,-5.1526,-8.3435,1590693277,N
75,2151073,-0.0359,-5.0632,-8.2050,0.0700,-0.0700,0.0700,1001.9235,-0.0738,-5.1630,-8.3372,1590693277,N
76,2151400,-0.0837,-5.0154,-8.2840,0.4200,-0.0700,0.0700,1001.9231,-0.0767,-5.1522,-8.3438,1590693277,N
75,2151074,-0.1125,-5.0201,-8.3007,0.3500,-0.0700,0.0700,1001.9227,-0.0848,-5.1390,-8.3519,1590693277,N
76,2150959,-0.0598,-4.9914,-8.2959,0.3500,0.4900,-0.2100,1001.9211,-0.0760,-5.0605,-8.3997,1590693278,N
75,2148118,-0.0814,-4.9531,-8.2983,-0.1400,-0.1400,0.1400,1001.9203,-0.0787,-5.0631,-8.3981,1590693278,N
76,2148448,-0.0598,-5.0010,-8.2792,-0.1400,-0.2100,0.1400,1001.9191,-0.0769,-5.0870,-8.3837,1590693278,N
75,2150166,-0.1196,-4.9866,-8.2887,-0.2100,-0.2100,0.1400,1001.9182,-0.0876,-5.0980,-8.3769,1590693278,N
76,2151071,-0.0479,-4.9962,-8.2600,-0.2800,-0.1400,0.1400,1001.9177,-0.0812,-5.1031,-8.3739,1590693278,N
75,2151728,-0.0837,-4.9962,-8.2552,-0.0700,-0.1400,0.0700,1001.9172,-0.0831,-5.1141,-8.3672,1590693278,N
76,2152707,-0.0861,-4.9795,-8.2672,-0.0700,-0.1400,0.0700,1001.9171,-0.0851,-5.1186,-8.3644,1590693278,N
75,2152469,-0.0981,-5.0010,-8.2863,0.2100,-0.0700,0.0700,1001.9170,-0.0887,-5.1127,-8.3680,1590693278,N
76,2152385,-0.0766,-4.9962,-8.2624,0.6300,-0.1400,0.0700,1001.9164,-0.0877,-5.1267,-8.3594,1590693278,N
75,2151090,-0.0550,-5.0058,-8.2337,1.3300,0.6300,0.1400,1001.9160,-0.0775,-5.0029,-8.4342,1590693278,N
76,2150067,-0.0837,-4.9986,-8.2648,0.5600,-0.0700,0.4200,1001.9161,-0.0808,-4.9923,-8.4404,1590693279,N
75,2151997,-0.1364,-5.0321,-8.2576,0.2800,-0.0700,0.4200,1001.9171,-0.0940,-5.0005,-8.4354,1590693279,N
76,2155257,-0.0598,-4.9938,-8.3103,-0.1400,-0.0700,0.4200,1001.9178,-0.0890,-4.9769,-8.4494,1590693279,N
75,2158381,-0.1795,-5.0560,-8.3270,-0.5600,-0.4200,0.4200,1001.9181,-0.1115,-5.0334,-8.4156,1590693279,N
75,2162149,-0.1101,-4.9914,-8.2576,-0.3500,-0.1400,0.4200,1001.9183,-0.1137,-5.0249,-8.4207,1590693279,N
75,2165690,-0.1149,-4.9603,-8.2074,-0.7700,-0.2800,-0.2100,1001.9183,-0.1157,-5.0796,-8.3877,1590693279,N
75,2167142,-0.0861,-4.9842,-8.2672,-0.7000,-0.1400,-0.2800,1001.9184,-0.1101,-5.1127,-8.3677,1590693279,N
75,2168182,-0.1029,-4.9938,-8.2193,-0.3500,-0.3500,-0.2100,1001.9188,-0.1108,-5.1699,-8.3325,1590693279,N
75,2166511,-0.1507,-5.0058,-8.2481,-0.7000,-0.3500,-0.2100,1001.9185,-0.1209,-5.2005,-8.3133,1590693279,N
75,2165579,-0.1460,-5.0154,-8.2624,-0.3500,-0.3500,-0.3500,1001.9189,-0.1275,-5.2365,-8.2905,1590693279,N
75,2165750,-0.0622,-5.0010,-8.2409,-0.5600,-0.2800,-0.3500,1001.9190,-0.1154,-5.2821,-8.2617,1590693280,N
75,2165663,-0.0646,-4.9531,-8.2313,-0.0700,-0.1400,-0.2100,1001.9185,-0.1057,-5.2913,-8.2560,1590693280,N
75,2165940,-0.1077,-4.9196,-8.2696,0.1400,-0.0700,-0.0700,1001.9182,-0.1069,-5.2494,-8.2827,1590693280,N
75,2166455,-0.1172,-4.9795,-8.2385,0.0700,-0.2100,-0.0700,1001.9175,-0.1106,-5.2435,-8.2864,1590693280,N
75,2166076,-0.1005,-4.9364,-8.3055,0.1400,-0.2100,-0.0700,1001.9174,-0.1100,-5.2330,-8.2930,1590693280,N
75,2165872,-0.0814,-4.9196,-8.2481,-0.3500,-0.2100,-0.2800,1001.9172,-0.1052,-5.2505,-8.2820,1590693280,N
74,2165274,-0.1149,-4.9795,-8.2217,-0.8400,-0.2100,-0.3500,1001.9183,-0.1078,-5.2655,-8.2724,1590693280,N
74,2162724,-0.0861,-4.9125,-8.3127,-0.7700,-0.4900,-0.0700,1001.9191,-0.1067,-5.2835,-8.2610,1590693280,N
74,2161256,-0.0694,-4.9101,-8.2911,-0.4900,0.0700,-0.1400,1001.9199,-0.0986,-5.2408,-8.2882,1590693280,N
74,2161813,-0.0479,-4.9292,-8.2720,-0.4200,-0.0700,-0.2100,1001.9207,-0.0884,-5.2483,-8.2836,1590693280,N
74,2162504,-0.1101,-5.0082,-8.2744,-1.4000,-0.2800,-0.7000,1001.9211,-0.0926,-5.3133,-8.2420,1590693281,N
74,2162153,-0.1244,-4.9771,-8.1858,0.1400,-0.4900,0.3500,1001.9212,-0.1039,-5.2855,-8.2597,1590693281,N
74,2162316,-0.0790,-4.9938,-8.3390,-0.0700,-0.2100,-0.2100,1001.9208,-0.0998,-5.2957,-8.2533,1590693281,N
74,2161952,-0.0909,-4.9699,-8.2840,0.4200,-0.2100,-0.2100,1001.9203,-0.0990,-5.3021,-8.2491,1590693281,N
74,2161722,-0.1077,-5.0393,-8.3175,-0.2100,-0.2800,0.0700,1001.9194,-0.1030,-5.2827,-8.2615,1590693281,N
74,2160751,-0.1029,-4.9627,-8.3007,-0.1400,0.2100,-0.3500,1001.9189,-0.1009,-5.2340,-8.2925,1590693281,N
74,2158532,-0.0718,-5.0106,-8.2744,-0.4900,-0.0700,-0.2100,1001.9186,-0.0950,-5.2395,-8.2891,1590693281,N
74,2158247,-0.0981,-4.9747,-8.2911,-0.4200,-0.2800,-0.0700,1001.9183,-0.0976,-5.2433,-8.2866,1590693281,N
74,2159824,-0.1101,-4.9675,-8.3438,-0.6300,-0.2100,-0.1400,1001.9178,-0.1012,-5.2305,-8.2947,1590693281,N
74,2160590,-0.1029,-4.9842,-8.3342,-0.4900,-0.2100,-0.1400,1001.9173,-0.1027,-5.2281,-8.2962,1590693281,N
73,2160926,-0.0861,-4.9651,-8.3318,-0.2800,-0.0700,-0.1400,1001.9166,-0.0996,-5.2123,-8.3062,1590693282,N
73,2161666,-0.0957,-4.9244,-8.2792,-0.3500,-0.1400,-0.1400,1001.9157,-0.0997,-5.2032,-8.3119,1590693282,N
73,2161399,-0.0598,-4.9388,-8.3055,-0.2100,-0.2800,-0.1400,1001.9153,-0.0933,-5.2338,-8.2927,1590693282,N
73,2161308,-0.1029,-4.9651,-8.2768,-0.4200,-0.3500,-0.2100,1001.9145,-0.0972,-5.2610,-8.2754,1590693282,N
73,2160743,-0.0814,-4.9173,-8.3198,-0.7700,-0.3500,-0.7000,1001.9139,-0.0943,-5.3351,-8.2279,1590693282,N
73,2159119,-0.1053,-4.9555,-8.3318,-0.7700,-0.2800,0.2100,1001.9131,-0.0993,-5.2730,-8.2678,1590693282,N
73,2159492,-0.0670,-4.9555,-8.3055,0.9800,0.1400,0.6300,1001.9123,-0.0941,-5.1557,-8.3415,1590693282,N
73,2161051,-0.1149,-4.9795,-8.3198,0.2800,0.1400,0.2800,1001.9113,-0.0985,-5.0815,-8.3868,1590693282,N
73,2163262,-0.0766,-5.0273,-8.2672,0.2800,-0.1400,0.2100,1001.9105,-0.0959,-5.0891,-8.3823,1590693282,N
73,2166169,-0.0598,-5.0441,-8.2624,0.0700,-0.1400,0.2800,1001.9093,-0.0906,-5.0900,-8.3817,1590693282,N
73,2169669,-0.1579,-5.0177,-8.2050,-1.5400,-0.4200,-0.4200,1001.9092,-0.1061,-5.1760,-8.3287,1590693283,N
73,2172060,-0.1029,-4.9555,-8.2576,-1.1900,-0.4200,-0.4900,1001.9103,-0.1071,-5.2420,-8.2874,1590693283,N
73,2173657,-0.1340,-4.9555,-8.3294,0.2100,-0.1400,0.1400,1001.9114,-0.1142,-5.1933,-8.3179,1590693283,N
72,2172523,-0.1412,-4.9460,-8.2672,-0.2800,-0.1400,0.1400,1001.9122,-0.1215,-5.1577,-8.3399,1590693283,N
73,2171428,-0.0861,-4.9579,-8.2911,-0.6300,-0.0700,-0.2800,1001.9130,-0.1142,-5.1656,-8.3351,1590693283,N
72,2172024,-0.1077,-4.9436,-8.3175,-0.7700,-0.7000,-0.0700,1001.9135,-0.1176,-5.2220,-8.2999,1590693283,N
73,2172039,-0.0622,-4.9579,-8.3318,1.8200,1.5400,0.3500,1001.9137,-0.0975,-4.9616,-8.4583,1590693283,N
72,2171518,-0.2201,-5.1087,-8.1356,6.3700,-0.7700,3.3600,1001.9137,-0.1384,-4.9604,-8.4585,1590693283,N
72,2172228,0.0072,-4.9077,-8.3773,2.1700,-0.7700,1.6100,1001.9144,-0.1192,-4.9411,-8.4700,1590693283,N
72,2172222,-0.1962,-5.0536,-8.0901,-4.9700,-1.2600,-1.8900,1001.9142,-0.1382,-5.2273,-8.2962,1590693283,N
72,2172897,-0.0646,-5.0034,-8.3438,-2.3800,-1.2600,-1.4000,1001.9149,-0.1270,-5.4452,-8.1550,1590693284,N
72,2171969,-0.1388,-5.0560,-8.2887,6.3000,1.8900,3.3600,1001.9160,-0.1279,-4.9650,-8.4560,1590693284,N
72,2168446,-0.1029,-4.9962,-8.3007,-5.3200,-2.2400,-1.3300,1001.9163,-0.1337,-5.2827,-8.2611,1590693284,N
71,2167176,-0.1220,-4.9842,-8.3294,-0.1400,0.2100,0.0700,1001.9164,-0.1305,-5.2053,-8.3101,1590693284,N
72,2166773,-0.1196,-4.9986,-8.1715,-0.6300,-0.2800,-0.3500,1001.9163,-0.1297,-5.2411,-8.2876,1590693284,N
71,2166053,-0.0263,-5.0536,-8.3222,-0.7000,-0.2800,-0.1400,1001.9155,-0.1104,-5.2808,-8.2626,1590693284,N
71,2166122,-0.1723,-4.9819,-8.2600,-0.4900,0.0700,-0.3500,1001.9153,-0.1218,-5.2332,-8.2927,1590693284,N
71,2165843,-0.0933,-4.9938,-8.3462,-0.2800,0.2100,-1.1900,1001.9155,-0.1112,-5.2757,-8.2659,1590693284,N
71,2164788,-0.0742,-5.1757,-8.6022,13.0200,2.4500,-5.1100,1001.9162,-0.0714,-5.5774,-8.0658,1590693284,N
71,2176153,1.6941,-6.5874,-10.3107,-30.5900,-81.1300,-7.9100,1001.9166,-0.5620,-0.0702,-9.7903,1590693284,N
71,2176928,-0.4092,-6.0275,-9.9374,57.8900,-75.8800,12.0400,1001.9177,-1.0925,-0.7677,-9.7153,1590693285,N
71,2177108,-1.0337,-6.4582,-8.3438,93.1000,-95.2700,22.1900,1001.9181,-1.2098,-7.9808,-5.5689,1590693285,N
70,2171444,-2.7589,-6.0634,-5.0441,140.7000,-73.3600,24.5700,1001.9184,-1.7442,-8.5328,-4.5077,1590693285,N
71,2167574,-4.7833,-6.1280,-3.1657,189.8400,-48.4400,11.9000,1001.9183,-1.9905,-9.1871,-2.7939,1590693285,N
70,2169538,-5.7141,-5.8648,0.4427,231.2800,-67.1300,-5.6000,1001.9183,-1.3895,-9.7074,-0.0828,1590693285,N
70,2183926,-4.7498,-9.0449,2.6297,-122.2200,-89.1800,-85.4000,1001.9172,-1.4650,-9.6872,-0.4265,1590693285,N
70,2201262,-3.5533,-1.3639,13.4740,236.1100,-59.5700,-97.5100,1001.9150,2.8624,-9.0272,2.5468,1590693285,N
70,2218631,-3.9840,-6.7765,4.7928,66.0800,-9.0300,-46.2700,1001.9129,-5.3561,-7.7931,2.5982,1590693285,N
70,2233499,2.7494,-7.5541,6.2405,-168.8400,-93.4500,-104.7200,1001.9085,-5.2466,-5.5404,6.1602,1590693285,N
70,2256948,3.7208,-6.0419,4.7521,8.8900,-10.7800,-38.3600,1001.9033,-4.1318,-5.3561,7.1001,1590693285,N
70,2271811,3.6371,-7.0828,5.6375,6.4400,32.0600,22.3300,1001.8965,-3.0708,-5.0002,7.8574,1590693286,N
70,2276701,1.2586,-9.2530,5.5777,39.6900,63.4200,60.3400,1001.8891,-3.4110,-4.3769,8.0857,1590693286,N
70,2273565,-1.2227,-9.6981,3.1250,-39.1300,-10.6400,86.8700,1001.8829,-1.4242,-9.2029,3.0740,1590693286,N
70,2272261,-1.9214,-6.9153,7.3555,62.2300,-20.0900,53.4100,1001.8760,-2.1327,-8.4208,4.5511,1590693286,N
70,2294874,-2.1703,-6.0347,6.1854,-7.9100,-28.4200,-18.9700,1001.8699,-2.0004,-8.2531,4.9046,1590693286,N
69,2301854,-0.5791,-2.3521,8.2241,95.4800,-20.8600,-42.4900,1001.8636,-1.6950,-7.5920,5.9716,1590693286,N
70,2305324,3.8261,-2.5842,8.2959,-5.6000,24.0100,-60.6200,1001.8575,-1.2319,-1.4729,9.6168,1590693286,N
69,2312756,1.0457,-4.7354,6.9440,72.8700,38.5700,54.3900,1001.8521,-1.4141,-0.1150,9.7035,1590693286,N
69,2314601,-0.8112,-5.3216,7.5852,-109.8300,52.9900,48.7200,1001.8462,-1.0406,-7.9635,5.6276,1590693286,N
69,2312808,-4.3908,-6.5683,5.8935,-45.0800,133.2800,98.7700,1001.8411,-2.8795,-7.4052,5.7482,1590693286,N
69,2293818,-6.8387,-5.4724,6.3194,-75.9500,-6.5100,130.9000,1001.8353,-4.0361,-6.8518,5.7388,1590693287,N
69,2278913,-10.1384,-6.9296,5.1852,-38.9900,-2.0300,121.9400,1001.8304,-5.1452,-6.2909,5.4883,1590693287,N
69,2277590,-6.4319,-4.2903,5.1374,-29.9600,-2.2400,50.1200,1001.8264,-5.7320,-5.8507,5.3930,1590693287,N
69,2276562,-6.4534,-4.2712,4.2544,8.7500,33.7400,30.7300,1001.8237,-6.3556,-5.4129,5.1457,1590693287,N
69,2271532,-8.1476,-3.3858,4.8000,-2.7300,-1.4000,-21.0700,1001.8216,-6.5854,-5.1364,5.1400,1590693287,N
68,2272378,-7.5709,-5.1015,5.0536,-3.9900,-1.1200,-9.6600,1001.8212,-6.6358,-5.1482,5.0629,1590693287,N
68,2274655,-7.1689,-5.1852,4.5942,1.1200,2.4500,0.2800,1001.8217,-6.7343,-5.1331,4.9468,1590693287,N
68,2276926,-7.0445,-5.0441,4.6732,-1.6100,1.5400,-2.3100,1001.8223,-6.7867,-5.1325,4.8753,1590693287,N
68,2278414,-7.0684,-4.8766,4.7163,-0.1400,-0.3500,-0.3500,1001.8226,-6.8413,-5.0858,4.8478,1590693287,N
68,2280723,-7.0828,-4.9795,4.6493,-0.2800,0.7700,-1.0500,1001.8229,-6.8852,-5.0699,4.8022,1590693287,N
67,2282872,-7.0684,-5.0058,4.6971,-0.1400,0.3500,-0.5600,1001.8240,-6.9141,-5.0562,4.7749,1590693288,N
68,2284264,-7.0971,-4.9651,4.6851,-0.1400,0.4900,-0.2800,1001.8243,-6.9460,-5.0357,4.7502,1590693288,N
68,2283591,-7.0588,-5.0130,4.6708,0.1400,-0.1400,-0.2800,1001.8239,-6.9621,-5.0295,4.7333,1590693288,N
67,2282843,-7.1067,-4.9651,4.7426,0.2100,0.1400,-0.1400,1001.8237,-6.9803,-5.0087,4.7284,1590693288,N
68,2283286,-7.1019,-4.8766,4.7378,0.2100,0.2100,0.4200,1001.8239,-7.0045,-4.9759,4.7274,1590693288,N
68,2283631,-7.0516,-4.9627,4.6421,-1.1900,-0.2800,-0.0700,1001.8240,-7.0139,-4.9810,4.7080,1590693288,N
68,2284162,-7.0636,-4.9292,4.7067,-0.9100,-0.2800,0.1400,1001.8244,-7.0217,-4.9733,4.7044,1590693288,N
68,2284797,-7.1163,-4.8933,4.7330,0.4200,-0.2100,0.0700,1001.8256,-7.0341,-4.9511,4.7093,1590693288,N
67,2285502,-7.1498,-4.9747,4.7091,0.8400,-0.2100,0.0700,1001.8266,-7.0430,-4.9424,4.7053,1590693288,N
68,2284130,-7.1186,-4.9627,4.7282,0.8400,-0.0700,-0.2800,1001.8275,-7.0456,-4.9369,4.7071,1590693288,N
68,2281853,-7.1330,-4.8838,4.7139,0.1400,-0.0700,-0.2800,1001.8276,-7.0556,-4.9236,4.7062,1590693289,N
68,2281244,-7.0899,-4.9699,4.7115,0.1400,-0.2800,-0.2100,1001.8286,-7.0527,-4.9288,4.7050,1590693289,N
68,2281661,-7.1043,-4.9460,4.7163,-0.3500,-0.3500,-0.0700,1001.8292,-7.0534,-4.9296,4.7030,1590693289,N
67,2281442,-7.1258,-4.8311,4.7186,0.0700,-0.2800,0.0700,1001.8283,-7.0654,-4.9085,4.7072,1590693289,N
68,2281534,-7.0899,-4.9268,4.7665,-0.3500,-0.2100,-0.1400,1001.8279,-7.0605,-4.9094,4.7136,1590693289,N
67,2282053,-7.1282,-4.9149,4.7115,-0.0700,-0.2800,-0.0700,1001.8273,-7.0650,-4.9066,4.7098,1590693289,N
68,2282275,-7.1163,-4.8622,4.7426,-0.0700,0.2100,0.2100,1001.8270,-7.0729,-4.8934,4.7116,1590693289,N
67,2279649,-7.1043,-4.9747,4.7378,-0.2800,-0.2100,0.2100,1001.8267,-7.0683,-4.9022,4.7093,1590693289,N
67,2277427,-7.1091,-4.8957,4.8239,-0.0700,-0.0700,-0.0700,1001.8266,-7.0641,-4.8937,4.7245,1590693289,N
67,2277119,-7.1521,-4.9340,4.7593,0.2100,-0.4900,0.0700,1001.8267,-7.0651,-4.8911,4.7257,1590693289,N
67,2277561,-7.1115,-4.9077,4.7785,0.0700,-0.2100,-0.2100,1001.8273,-7.0626,-4.8890,4.7316,1590693290,N
67,2277706,-7.0349,-4.9340,4.6708,-0.0700,-0.2100,-0.1400,1001.8276,-7.0591,-4.9022,4.7231,1590693290,N
67,2277909,-7.0684,-4.8598,4.7091,-0.2800,-0.0700,-0.2100,1001.8284,-7.0626,-4.8985,4.7218,1590693290,N
66,2278166,-7.0516,-4.9460,4.7115,-0.2800,-0.2800,0.0700,1001.8289,-7.0577,-4.9081,4.7191,1590693290,N
67,2278542,-7.1186,-4.8096,4.8168,-0.0700,0.2800,0.1400,1001.8302,-7.0661,-4.8832,4.7323,1590693290,N
66,2275865,-7.2024,-4.9412,4.7521,-0.3500,-0.2800,-0.0700,1001.8309,-7.0717,-4.8837,4.7235,1590693290,N
67,2273854,-7.1330,-4.8981,4.7498,-0.1400,-0.2800,-0.4200,1001.8309,-7.0711,-4.8838,4.7242,1590693290,N
66,2273997,-7.0780,-4.9173,4.8024,0.2100,-0.7700,-0.2100,1001.8309,-7.0590,-4.8860,4.7400,1590693290,N
66,2274654,-7.0923,-4.9029,4.7665,-0.1400,-0.0700,-0.5600,1001.8301,-7.0559,-4.8891,4.7414,1590693290,N
66,2276284,-7.0828,-4.8694,4.7426,-0.2800,0.4900,-0.4900,1001.8298,-7.0598,-4.8877,4.7371,1590693290,N
66,2278470,-7.1043,-4.8861,4.7785,-0.6300,0.4900,-0.6300,1001.8300,-7.0605,-4.8884,4.7353,1590693291,N
66,2281366,-7.1043,-4.8048,5.0824,-3.5000,0.0700,-2.5900,1001.8296,-7.0338,-4.8880,4.7752,1590693291,N
66,2284151,-8.1069,-4.0534,5.2116,-61.8800,14.1400,-26.8800,1001.8293,-7.0797,-5.0928,4.4845,1590693291,N
66,2285621,-7.2335,-6.4128,5.8983,-52.0100,76.8600,-64.6100,1001.8300,-6.9841,-5.6997,3.8609,1590693291,N
66,2294104,-7.2144,-6.1184,2.1081,21.4900,106.3300,-77.7000,1001.8314,-7.2256,-5.8920,3.0407,1590693291,N
66,2309971,-5.7236,-6.8195,0.4116,7.7000,50.2600,-99.1200,1001.8316,-6.9695,-6.4840,2.3568,1590693291,N
66,2343219,-2.7111,-7.3149,-0.5408,-10.4300,-12.3900,-98.2800,1001.8320,-6.1222,-7.3715,2.0859,1590693291,N
66,2363328,-0.9930,-10.8754,0.3446,0.2800,-21.9100,-60.2000,1001.8321,-5.0176,-8.1551,2.1187,1590693291,N
66,2356948,-0.7059,-8.6931,0.6389,20.5100,3.3600,2.5900,1001.8328,-4.5858,-8.3752,2.2355,1590693291,N
66,2328258,-1.1821,-9.0760,1.3161,-0.6300,3.4300,14.0700,1001.8339,-3.8309,-8.7503,2.2196,1590693291,N
67,2314347,-4.9316,-10.8084,1.9406,13.8600,8.1900,8.4000,1001.8355,-4.0893,-8.6278,2.2382,1590693292,N
67,2318602,-4.3071,-10.5523,-0.1723,83.6500,-33.7400,25.0600,1001.8356,-4.6529,-8.2021,2.6918,1590693292,N
67,2300550,-1.4955,-2.0698,7.4345,31.1500,-60.9000,-5.3900,1001.8352,-4.3634,-7.9047,3.8271,1590693292,N
67,2295834,-1.4716,-9.0712,1.0839,-68.4600,43.7500,-38.6400,1001.8354,-3.5251,-8.7321,2.7375,1590693292,N
67,2293835,-1.2227,-10.9807,1.9454,-59.6400,-19.3900,-5.2500,1001.8362,-2.7089,-9.1691,2.1816,1590693292,N
67,2293813,-2.4144,-7.9944,1.9238,-87.2900,-8.6100,12.8800,1001.8365,-2.2869,-9.4281,1.4320,1590693292,N
68,2292591,-1.8138,-9.8608,-0.3829,-72.1700,-0.1400,20.7900,1001.8363,-1.7826,-9.6341,0.4195,1590693292,N
67,2299013,-1.3280,-10.3202,-2.4431,-26.7400,0.2100,67.9700,1001.8363,-1.0881,-9.7412,-0.3080,1590693292,N
68,2327836,-5.9629,-11.3970,-0.2297,26.1100,-10.2900,136.5000,1001.8368,-3.1208,-9.2957,0.1433,1590693292,N
68,2338100,-3.5342,-6.4678,-1.9023,23.1700,-59.8500,61.6700,1001.8370,-3.7901,-9.0402,0.2832,1590693292,N
68,2290091,-9.5713,-6.1184,1.3376,55.0200,-11.4800,29.0500,1001.8377,-5.5521,-8.0236,0.9834,1590693293,N
68,2272387,-6.9631,-7.3125,1.3256,69.5100,-75.6000,18.7600,1001.8393,-6.1481,-7.4264,1.7943,1590693293,N
68,2270725,-4.0271,-7.2622,5.9222,31.5000,-51.8000,12.8100,1001.8415,-5.8182,-7.3124,2.9745,1590693293,N
68,2275264,-6.3793,-7.0875,3.0102,-86.6600,-47.6700,-1.6800,1001.8435,-5.3561,-7.7845,2.6236,1590693293,N
68,2279816,-5.7165,-6.4487,5.3240,99.6800,-28.7000,36.6800,1001.8448,-5.8892,-6.7948,3.9139,1590693293,N
68,2285634,-7.2790,-1.4094,7.6211,18.2000,25.6200,-9.9400,1001.8454,-6.5209,-5.6565,4.6531,1590693293,N
68,2290671,-6.7238,-4.4506,5.1757,2.6600,3.4300,-4.6200,1001.8466,-6.6038,-5.4444,4.7873,1590693293,N
68,2295149,-6.3506,-5.5968,5.0249,-14.8400,5.0400,-5.5300,1001.8474,-6.5366,-5.5704,4.7343,1590693293,N
68,2296817,-6.6568,-5.4652,4.5846,0.7700,2.8000,-0.3500,1001.8471,-6.5801,-5.5503,4.6975,1590693293,N
68,2295446,-6.6425,-5.0800,5.1972,2.9400,0.2800,0.2800,1001.8459,-6.5964,-5.4364,4.8065,1590693293,N
68,2294904,-6.5731,-5.2211,5.1446,0.2800,-0.2100,-0.0700,1001.8448,-6.5868,-5.3890,4.8727,1590693294,N
68,2295785,-6.6066,-5.2690,5.0417,0.2800,0.2800,-0.1400,1001.8429,-6.5875,-5.3606,4.9029,1590693294,N
68,2296917,-6.5635,-5.2881,5.0201,-0.9100,-0.4900,0.2100,1001.8411,-6.5808,-5.3494,4.9242,1590693294,N
68,2297423,-6.5731,-5.2211,5.0704,-0.0700,-0.2800,-0.0700,1001.8395,-6.5778,-5.3248,4.9548,1590693294,N
68,2298859,-6.5898,-5.2666,5.1159,-0.3500,-0.0700,-0.1400,1001.8383,-6.5713,-5.3095,4.9797,1590693294,N
68,2300253,-6.5898,-5.2307,5.0345,0.3500,-0.1400,0.2100,1001.8376,-6.5759,-5.2911,4.9932,1590693294,N
68,2301819,-6.5922,-5.1900,5.1302,0.9800,0.0700,0.2800,1001.8370,-6.5777,-5.2616,5.0219,1590693294,N
69,2301632,-6.6209,-5.2642,5.1087,-0.2100,-0.1400,-0.1400,1001.8364,-6.5749,-5.2561,5.0314,1590693294,N
68,2299262,-6.5827,-5.2475,5.0441,0.0700,-0.0700,-0.1400,1001.8353,-6.5744,-5.2542,5.0340,1590693294,N
69,2297535,-6.6377,-5.2499,5.1398,-0.0700,-0.2100,-0.0700,1001.8342,-6.5729,-5.2442,5.0463,1590693294,N
69,2297219,-6.5994,-5.2666,5.0967,-0.1400,-0.2800,-0.2100,1001.8336,-6.5682,-5.2449,5.0517,1590693295,N
69,2297506,-6.5731,-5.1948,5.0728,-0.0700,-0.2800,-0.2800,1001.8316,-6.5680,-5.2384,5.0588,1590693295,N
68,2297974,-6.6257,-5.2259,5.1230,0.3500,-0.5600,0.1400,1001.8296,-6.5687,-5.2270,5.0696,1590693295,N
69,2299420,-6.5731,-5.1829,5.1111,0.2800,-0.3500,-0.0700,1001.8278,-6.5673,-5.2175,5.0813,1590693295,N
69,2300715,-6.6568,-5.1613,5.1829,-0.2800,-0.0700,-0.2100,1001.8267,-6.5726,-5.2001,5.0921,1590693295,N
69,2301609,-6.5803,-5.1661,5.1517,-0.3500,0.2800,-0.2800,1001.8257,-6.5717,-5.1945,5.0991,1590693295,N
69,2300040,-6.6090,-5.2570,5.1111,-0.2100,0.0700,-0.2100,1001.8254,-6.5698,-5.2023,5.0936,1590693295,N
68,2299447,-6.5420,-5.2594,5.0752,-0.6300,0.1400,-0.4200,1001.8243,-6.5624,-5.2188,5.0862,1590693295,N
69,2300111,-6.5970,-5.1517,5.0991,-0.0700,0.4200,-0.2800,1001.8239,-6.5708,-5.2075,5.0869,1590693295,N
69,2301130,-6.5779,-5.2475,5.1206,-1.0500,0.4200,-0.6300,1001.8242,-6.5652,-5.2192,5.0821,1590693295,N
69,2302733,-6.6066,-5.2857,5.0632,-1.0500,0.3500,-0.5600,1001.8244,-6.5651,-5.2348,5.0662,1590693296,N
68,2304975,-6.6329,-5.2092,5.0728,-0.5600,0.7000,-0.4900,1001.8248,-6.5749,-5.2308,5.0576,1590693296,N
68,2307023,-6.5611,-5.2786,5.0441,-1.0500,0.4200,-0.5600,1001.8259,-6.5700,-5.2473,5.0469,1590693296,N
69,2308677,-6.5827,-5.2834,5.1398,0.1400,0.9800,-0.4900,1001.8260,-6.5650,-5.2477,5.0530,1590693296,N
68,2307484,-6.6042,-5.3073,5.0728,-0.3500,0.6300,-0.9100,1001.8262,-6.5621,-5.2586,5.0454,1590693296,N
68,2305341,-6.5611,-5.3480,4.9268,-0.2100,-0.2800,0.1400,1001.8259,-6.5631,-5.2784,5.0234,1590693296,N
68,2304500,-6.5874,-5.2570,5.1230,0.3500,-0.6300,0.2100,1001.8265,-6.5584,-5.2658,5.0427,1590693296,N
68,2304932,-6.5515,-5.2881,5.0273,-0.4200,0.0700,-0.4200,1001.8268,-6.5552,-5.2747,5.0375,1590693296,N
68,2305625,-6.5276,-5.2881,5.0632,-0.0700,0.0700,-0.2800,1001.8268,-6.5483,-5.2791,5.0419,1590693296,N
68,2306458,-6.6784,-5.2738,5.0034,0.4900,-0.5600,0.4200,1001.8273,-6.5649,-5.2670,5.0330,1590693296,N
68,2307499,-6.5492,-5.3049,5.0632,0.0700,-0.2800,0.1400,1001.8275,-6.5577,-5.2709,5.0383,1590693297,N
68,2308516,-6.5922,-5.2834,4.9699,0.0700,-0.4900,0.2100,1001.8271,-6.5639,-5.2729,5.0281,1590693297,N
68,2308076,-6.5587,-5.2235,5.0752,-0.2100,-0.3500,0.0700,1001.8273,-6.5622,-5.2646,5.0390,1590693297,N
68,2305346,-6.5970,-5.1924,5.0489,-0.0700,-0.3500,0.1400,1001.8273,-6.5695,-5.2511,5.0437,1590693297,N
68,2303083,-6.6592,-5.2164,5.0201,0.0700,-0.2800,0.4200,1001.8268,-6.5842,-5.2385,5.0376,1590693297,N
67,2302602,-6.6305,-5.2044,5.0847,-0.5600,-0.4200,0.3500,1001.8270,-6.5881,-5.2287,5.0427,1590693297,N
68,2302611,-6.5539,-5.2570,5.1063,0.2100,-0.2800,0.3500,1001.8264,-6.5783,-5.2290,5.0551,1590693297,N
68,2302835,-6.6377,-5.2140,5.0249,0.4200,-0.5600,0.2800,1001.8262,-6.5866,-5.2211,5.0524,1590693297,N
68,2303129,-6.5563,-5.2379,5.1709,-0.0700,-0.2100,-0.4200,1001.8256,-6.5706,-5.2222,5.0721,1590693297,N
68,2303438,-6.5731,-5.2834,5.0608,-1.8900,-0.6300,-0.4200,1001.8251,-6.5616,-5.2435,5.0618,1590693297,N
68,2303851,-6.6377,-5.1900,5.0632,-0.8400,-1.0500,1.0500,1001.8243,-6.5737,-5.2292,5.0609,1590693298,N
68,2302723,-6.5850,-5.2020,5.1852,-1.3300,-1.3300,0.7700,1001.8239,-6.5654,-5.2208,5.0804,1590693298,N
68,2299237,-6.5731,-5.1900,5.1685,-0.8400,-0.6300,0.0700,1001.8231,-6.5594,-5.2152,5.0939,1590693298,N
68,2296631,-6.5492,-5.3623,5.0632,-1.4700,-0.2100,-0.1400,1001.8223,-6.5480,-5.2465,5.0763,1590693298,N
67,2295309,-6.6114,-5.2786,5.0871,0.9100,0.1400,0.0700,1001.8218,-6.5531,-5.2411,5.0753,1590693298,N
68,2294312,-6.6616,-5.1781,5.0919,-1.3300,0.0700,-0.5600,1001.8212,-6.5656,-5.2330,5.0674,1590693298,N
68,2294192,-6.4582,-5.2187,5.3504,-11.5500,0.0700,-0.8400,1001.8217,-6.5299,-5.2838,5.0608,1590693298,N
68,2294803,-6.6473,-5.2331,5.1159,-4.4100,4.6900,0.2800,1001.8226,-6.5677,-5.2803,5.0154,1590693298,N
68,2295547,-6.9583,-4.9986,4.8742,-17.0100,8.8200,-3.7800,1001.8228,-6.6604,-5.3137,4.8554,1590693298,N
68,2293204,-6.5587,-5.5825,4.3095,-18.9000,5.8100,-3.5000,1001.8221,-6.6683,-5.4921,4.6413,1590693298,N
68,2288371,-5.8385,-6.4965,3.8333,-29.5400,24.4300,0.2100,1001.8218,-6.6480,-5.8340,4.2354,1590693299,N
68,2283454,-8.2768,-7.1545,2.5771,86.5900,60.5500,10.7100,1001.8218,-7.2208,-5.2646,4.0391,1590693299,N
68,2277968,-7.4919,-2.6489,6.9966,6.8600,-14.9800,26.8100,1001.8225,-7.3430,-4.5643,4.6279,1590693299,N
68,2275694,-7.0612,-6.1352,1.9358,-69.0900,23.5200,-27.4400,1001.8229,-7.3523,-5.3394,3.6884,1590693299,N
68,2270181,-7.6953,-5.3216,2.1942,58.8700,-7.0000,-9.2400,1001.8236,-7.4453,-5.2048,3.6942,1590693299,N
68,2266936,-6.8985,-7.0732,3.9673,-9.5900,-21.2800,-1.1900,1001.8240,-7.1222,-5.5693,3.7984,1590693299,N
68,2265050,-6.9392,-5.7835,3.8501,39.5500,-10.4300,18.8300,1001.8251,-7.1725,-5.3367,4.0306,1590693299,N
68,2260517,-7.4536,-3.9697,5.3504,33.2500,-4.2700,5.5300,1001.8261,-7.2494,-4.8814,4.4484,1590693299,N
68,2256310,-6.3386,-5.6016,5.1996,-2.5900,-1.7500,-15.0500,1001.8271,-6.9673,-5.1307,4.6156,1590693299,N
68,2251593,-8.4179,-5.2738,5.3695,26.3200,-12.1100,-13.4400,1001.8278,-6.8670,-5.0436,4.8555,1590693299,N
68,2250020,-6.0491,-4.5559,5.0536,2.6600,-12.0400,-17.2200,1001.8281,-6.6473,-5.1206,5.0758,1590693300,N
68,2249015,-4.6708,-4.9316,6.0156,8.3300,38.3600,19.9500,1001.8275,-6.6421,-5.0241,5.1779,1590693300,N
68,2250559,-3.8333,-5.6806,2.6273,128.5200,164.3600,157.2900,1001.8267,-8.2057,-3.4272,4.1341,1590693300,N
68,2250379,-6.0826,0.5001,0.7274,-79.5900,28.4900,67.0600,1001.8265,-8.9340,-2.4855,3.1900,1590693300,N
68,2248132,-10.6002,-0.0048,2.0602,-219.2400,-37.0300,6.0200,1001.8267,-8.9668,-2.8446,2.7703,1590693300,N
68,2243982,-7.8676,-5.3049,3.5916,-13.4400,-62.2300,13.0200,1001.8271,-8.5252,-3.4945,3.3586,1590693300,N
69,2243885,-8.7960,-1.3687,5.5035,-46.5500,-10.7100,-14.5600,1001.8279,-8.4603,-3.3513,3.6555,1590693300,N
68,2244559,-8.6596,-2.2995,4.0439,30.8700,12.1800,-12.6000,1001.8288,-8.5210,-3.0709,3.7594,1590693300,N
69,2244578,-8.9468,-1.8927,3.4074,32.4800,11.7600,-25.9000,1001.8297,-8.5563,-2.8897,3.8223,1590693300,N
69,2243641,-10.3442,-2.0387,4.2616,6.3700,-4.6900,-41.3700,1001.8300,-8.3773,-3.0754,4.0660,1590693300,N
69,2244026,-7.7145,-3.5438,4.7115,-4.7600,-1.1900,-81.5500,1001.8303,-7.8861,-3.7509,4.4621,1590693301,N
69,2244456,-8.0830,-4.2975,4.7665,-17.6400,49.9100,-137.0600,1001.8306,-7.4348,-4.6787,4.3594,1590693301,N
69,2250176,-5.4987,-4.8479,3.9218,63.2800,23.3100,-186.6900,1001.8309,-6.3834,-5.6596,4.8365,1590693301,N
69,2248213,-3.0772,-7.9370,3.0843,119.7700,-22.6800,-170.0300,1001.8315,-4.8958,-6.4824,5.4936,1590693301,N
69,2242802,0.0263,-9.6861,4.6277,10.2900,-35.3500,-52.8500,1001.8323,-3.3518,-7.3022,5.6226,1590693301,N
69,2244078,0.4522,-7.1474,4.0463,40.9500,-11.1300,-4.6900,1001.8320,-2.8233,-7.3423,5.8557,1590693301,N
69,2246531,0.0861,-4.7067,7.7527,47.1800,-9.6600,-20.6500,1001.8314,-2.1433,-7.1758,6.3313,1590693301,N
70,2253386,-0.4570,-8.1212,6.0897,9.8000,28.8400,21.4200,1001.8303,-2.0254,-7.3164,6.2080,1590693301,N
70,2259658,-0.5527,-7.2311,5.7093,27.0200,37.7300,90.7900,1001.8293,-2.4475,-6.8353,6.5924,1590693301,N
70,2264051,-2.3210,-4.4219,6.8650,73.1500,39.1300,107.2400,1001.8286,-3.3073,-5.5190,7.4009,1590693301,N
70,2271778,-5.4245,-3.2614,5.8361,-34.0200,62.5800,113.4700,1001.8275,-4.5937,-5.0839,7.0159,1590693302,N
70,2272280,-8.6046,-6.3960,9.4899,76.3700,166.6700,182.1400,1001.8259,-6.5967,-3.6887,6.2488,1590693302,N
70,4197886,-8.4514,0.7107,5.0632,-76.4400,18.6200,-25.9000,1001.8248,-7.1036,-3.3191,5.8901,1590693302,N
70,4113985,-7.3268,-4.3813,4.5057,3.3600,0.8400,-13.2300,1001.8235,-7.1510,-3.6159,5.6533,1590693302,N
70,3906399,-8.5184,-3.8740,4.4794,12.8800,-3.0100,7.0700,1001.8223,-7.3527,-3.5594,5.4258,1590693302,N
70,3395172,-7.8293,-6.8028,5.3527,8.0500,-7.0700,30.5900,1001.8210,-7.4111,-3.5678,5.3402,1590693302,N
71,3149682,-7.9777,-3.6969,4.1204,-68.4600,15.8200,74.9000,1001.8207,-8.0480,-3.3616,4.4833,1590693302,N
71,3203647,-8.2098,-0.9858,3.7543,-48.3000,-26.3200,69.5800,1001.8203,-8.4692,-2.5818,4.2164,1590693302,N
71,3097374,-9.1980,3.0126,6.5635,24.5000,0.2100,-0.6300,1001.8198,-8.5898,-1.9073,4.3298,1590693302,N
71,3263048,-8.3510,-2.4072,4.8598,-27.9300,-1.2600,-25.1300,1001.8196,-8.4203,-2.2825,4.4786,1590693302,N
71,3171141,-8.5328,-2.4885,4.4411,-5.3900,7.3500,-5.1800,1001.8207,-8.4351,-2.3594,4.4105,1590693303,N
71,3017284,-8.5017,-1.2179,4.3956,23.1700,1.4000,-11.6900,1001.8204,-8.4131,-2.1345,4.5644,1590693303,N
71,2767773,-8.4993,-1.0720,4.7545,45.9200,-1.8200,-29.6100,1001.8201,-8.1656,-1.9774,5.0580,1590693303,N
71,2616785,-8.3318,-1.3400,4.8933,63.5600,-1.2600,-44.3100,1001.8207,-7.6823,-1.8889,5.7952,1590693303,N
71,2369265,-8.4275,-1.9860,5.0130,50.2600,-4.2000,-59.5700,1001.8214,-7.2337,-2.0119,6.3085,1590693303,N
71,2237818,-6.8148,-5.5537,6.0706,49.2800,-13.5800,-29.0500,1001.8216,-6.7983,-2.4882,6.6153,1590693303,N
71,2207842,-7.0804,-4.1324,5.4078,-19.1800,14.9100,-2.3800,1001.8214,-7.0759,-2.9388,6.1209,1590693303,N
71,2210163,-7.1976,-4.7019,3.8070,-148.3300,-18.6200,-27.5100,1001.8217,-7.2605,-4.1701,5.1054,1590693303,N
71,2210943,-7.0923,-5.2164,5.3049,20.7900,-12.3200,59.5000,1001.8217,-7.3832,-3.8886,5.1514,1590693303,N
71,2196807,-7.9035,0.9667,6.2189,30.5200,15.1200,17.0800,1001.8210,-7.7303,-2.6838,5.4046,1590693303,N
71,2217281,-7.7671,-4.0104,5.0058,-26.8100,0.7000,-20.6500,1001.8201,-7.6550,-3.1585,5.2531,1590693304,N
72,2238386,-7.6618,-4.0750,4.7713,4.1300,0.7000,4.9700,1001.8200,-7.6740,-3.2843,5.1471,1590693304,N
71,2243787,-7.6834,-3.4744,5.2116,-5.6700,-2.1000,0.0700,1001.8199,-7.6562,-3.3391,5.1384,1590693304,N
71,2246906,-7.7145,-3.1920,5.1829,0.6300,0.2800,0.4900,1001.8195,-7.6680,-3.3024,5.1446,1590693304,N
71,2245651,-7.6666,-3.4816,5.0560,-0.2100,0.4900,-0.7000,1001.8192,-7.6650,-3.3419,5.1234,1590693304,N
71,2243950,-7.6905,-3.3787,5.1206,0.1400,0.4900,-0.4900,1001.8187,-7.6652,-3.3491,5.1184,1590693304,N
71,2242709,-7.6857,-3.3093,5.1996,1.1900,0.4900,-1.5400,1001.8184,-7.6558,-3.3426,5.1367,1590693304,N
71,2241274,-7.6403,-3.5414,5.0058,-0.1400,0.5600,-2.5200,1001.8185,-7.6455,-3.3990,5.1151,1590693304,N
71,2216868,-7.8293,-3.9793,4.9005,11.8300,-4.2000,10.4300,1001.8192,-7.6631,-3.3870,5.0966,1590693304,N
71,2189886,-7.7049,-3.3787,5.2642,-7.6300,1.6100,15.4700,1001.8198,-7.7462,-3.3061,5.0236,1590693304,N
71,2188082,-7.9011,-2.6536,5.1039,-0.5600,3.5000,10.7800,1001.8209,-7.8576,-3.1031,4.9800,1590693305,N
70,2192317,-7.8676,-3.1753,5.1039,-10.2200,3.7100,11.3400,1001.8220,-7.9304,-3.0698,4.8843,1590693305,N
70,2206886,-8.0471,-2.5220,4.8168,3.9200,1.1200,7.1400,1001.8224,-8.0082,-2.8995,4.8612,1590693305,N
70,2214758,-7.9083,-3.1561,5.2618,4.4100,-1.0500,6.1600,1001.8231,-7.9766,-2.8839,4.9221,1590693305,N
70,2205613,-7.9753,-2.3761,5.2259,2.3800,0.2100,5.0400,1001.8234,-8.0012,-2.7383,4.9652,1590693305,N
70,2205232,-8.0806,-2.7063,4.9173,-3.5700,0.9800,-3.2200,1001.8226,-8.0058,-2.7630,4.9440,1590693305,N
70,2214050,-7.9705,-2.6465,5.0967,-7.2100,0.8400,-3.0800,1001.8225,-7.9961,-2.7841,4.9479,1590693305,N
70,2227490,-7.9561,-2.8905,5.0082,-7.0000,0.8400,-5.0400,1001.8232,-7.9723,-2.8614,4.9422,1590693305,N
70,2235774,-8.0255,-3.0580,4.9268,-3.9900,0.8400,-2.9400,1001.8231,-7.9627,-2.9278,4.9188,1590693305,N
70,2235517,-7.9633,-3.1250,4.9579,-2.5900,-0.2800,-1.3300,1001.8224,-7.9452,-2.9807,4.9151,1590693305,N
70,2233806,-7.9322,-3.0652,4.9101,-0.7700,-0.1400,-0.5600,1001.8223,-7.9381,-3.0035,4.9128,1590693306,N
70,2233610,-7.9801,-3.0508,4.9651,-0.9800,-0.5600,-0.5600,1001.8227,-7.9302,-3.0164,4.9178,1590693306,N
70,2209911,-7.9585,-3.0293,4.9508,-0.7000,-0.9100,0.2100,1001.8231,-7.9263,-3.0186,4.9227,1590693306,N
70,2193594,-7.8987,-3.1298,5.0058,-0.2800,-0.3500,-0.4200,1001.8237,-7.9086,-3.0417,4.9369,1590693306,N
70,2190536,-7.9466,-3.0796,5.0201,0.0700,0.1400,-0.0700,1001.8241,-7.9029,-3.0441,4.9445,1590693306,N
70,2196069,-8.0088,-3.0365,4.9866,-0.9100,0.8400,-0.7000,1001.8246,-7.9091,-3.0431,4.9352,1590693306,N
70,2210716,-7.9274,-3.0700,4.9531,-2.5900,1.8200,-2.1000,1001.8246,-7.9096,-3.0675,4.9193,1590693306,N
70,2217923,-7.9657,-3.1585,4.9412,-0.7000,-0.6300,1.1900,1001.8248,-7.9107,-3.0758,4.9122,1590693306,N
70,2219501,-7.9346,-3.0772,4.9675,0.0700,-1.1200,1.1900,1001.8249,-7.9081,-3.0664,4.9223,1590693306,N
69,2220537,-7.9848,-3.0173,4.9866,0.2100,0.2100,-0.5600,1001.8245,-7.9088,-3.0544,4.9287,1590693306,N
70,2221387,-7.9561,-3.1513,4.8933,0.4900,-0.0700,-0.2100,1001.8241,-7.9081,-3.0702,4.9200,1590693307,N
69,2221670,-7.9370,-3.1705,4.9196,-1.0500,-0.0700,-0.2100,1001.8229,-7.9050,-3.0921,4.9113,1590693307,N
69,2221991,-7.9729,-3.0221,4.9890,0.0700,-0.2800,0.7000,1001.8216,-7.9090,-3.0691,4.9192,1590693307,N
69,2221973,-7.9394,-3.0508,4.9914,0.5600,0.2100,-0.2800,1001.8196,-7.9052,-3.0616,4.9300,1590693307,N
69,2218991,-7.9920,-3.0987,4.8861,0.2800,-0.3500,0.5600,1001.8177,-7.9136,-3.0610,4.9169,1590693307,N
69,2216305,-7.9442,-3.0748,4.9699,-0.4200,-0.4900,-0.2100,1001.8177,-7.9078,-3.0639,4.9244,1590693307,N
69,2215018,-7.9657,-3.1131,4.8646,-0.1400,-0.8400,-0.3500,1001.8176,-7.9085,-3.0756,4.9159,1590693307,N
69,2214088,-7.9490,-3.1083,4.9101,-0.2100,-0.7700,-0.9100,1001.8176,-7.9022,-3.0874,4.9187,1590693307,N
69,2213372,-7.8748,-3.1466,4.9101,0.0700,-0.9100,-0.3500,1001.8185,-7.8916,-3.1029,4.9259,1590693307,N
68,2213418,-7.9561,-3.0748,4.9220,-0.0700,-0.2800,-0.6300,1001.8192,-7.8935,-3.0994,4.9250,1590693307,N
68,2214697,-7.9011,-3.2112,4.9412,-0.1400,-0.4200,-0.4200,1001.8196,-7.8831,-3.1223,4.9273,1590693308,N
68,2208439,-7.9179,-3.1657,4.8766,-0.2100,-0.9100,-0.2100,1001.8195,-7.8822,-3.1333,4.9218,1590693308,N
68,2188381,-7.9681,-3.0413,5.0680,4.9000,-0.7000,1.1200,1001.8198,-7.8770,-3.0833,4.9615,1590693308,N
68,2180840,-7.9466,-2.9743,4.9603,3.3600,0.1400,0.7000,1001.8204,-7.8872,-3.0430,4.9702,1590693308,N
68,2180844,-7.9011,-3.0317,5.0704,1.1200,0.4200,0.0700,1001.8210,-7.8815,-3.0320,4.9859,1590693308,N
68,2188346,-7.9202,-3.0437,4.9005,0.4200,1.4700,0.0700,1001.8214,-7.8977,-3.0311,4.9607,1590693308,N
68,2205315,-7.8485,-3.2423,4.7904,-0.6300,-0.2800,0.2800,1001.8210,-7.8986,-3.0779,4.9304,1590693308,N
68,2219282,-7.9466,-3.1011,4.9244,-1.5400,-0.2800,-0.8400,1001.8214,-7.8977,-3.0914,4.9234,1590693308,N
68,2225537,-7.9155,-3.0724,4.9627,-1.2600,0.1400,-0.2800,1001.8213,-7.8977,-3.0922,4.9230,1590693308,N
68,2225744,-7.9418,-3.0915,4.9412,-0.4200,0.1400,-0.2800,1001.8212,-7.8992,-3.0925,4.9204,1590693308,N
68,2224915,-7.9466,-3.1107,4.9244,-0.4900,-0.1400,-0.2800,1001.8214,-7.8998,-3.0970,4.9165,1590693309,N
67,2225215,-7.9992,-3.1131,4.9508,-0.1400,-0.1400,0.0700,1001.8218,-7.9030,-3.0940,4.9133,1590693309,N
68,2226215,-7.9418,-3.1298,4.9268,-0.0700,0.0700,-0.2800,1001.8224,-7.9018,-3.1001,4.9113,1590693309,N
67,2226967,-7.9370,-3.1729,4.9699,-0.6300,-0.0700,-0.1400,1001.8231,-7.8956,-3.1128,4.9132,1590693309,N
67,2227906,-7.9609,-3.0796,4.9412,-0.2100,-0.3500,0.1400,1001.8233,-7.8989,-3.1029,4.9143,1590693309,N
67,2228576,-7.9705,-3.0796,4.9460,-0.2100,-0.1400,-0.1400,1001.8238,-7.9014,-3.0960,4.9146,1590693309,N
67,2229191,-7.9872,-3.1226,5.0010,-0.2100,0.4200,0.1400,1001.8245,-7.9021,-3.0930,4.9153,1590693309,N
67,2227364,-7.9274,-3.1346,4.9244,-0.2100,-0.0700,-0.0700,1001.8250,-7.9006,-3.1002,4.9132,1590693309,N
67,2224794,-7.9968,-3.1059,4.8957,-0.2800,-0.1400,-0.1400,1001.8253,-7.9074,-3.0991,4.9030,1590693309,N
67,2224059,-7.9585,-3.1059,4.8957,-0.4200,-0.1400,-0.0700,1001.8255,-7.9107,-3.1001,4.8970,1590693309,N
66,2224552,-7.9202,-3.1633,4.8885,-0.4200,-0.4200,-0.1400,1001.8253,-7.9066,-3.1142,4.8947,1590693310,N
67,2224938,-7.9179,-3.0150,4.9651,-0.0700,-0.1400,-0.1400,1001.8249,-7.9055,-3.0949,4.9087,1590693310,N
67,2225155,-7.9825,-3.0987,4.9579,-0.1400,-0.1400,-0.1400,1001.8251,-7.9055,-3.0918,4.9106,1590693310,N
67,2225576,-7.9083,-3.1035,4.9412,-0.2100,-0.1400,-0.0700,1001.8257,-7.9019,-3.0942,4.9150,1590693310,N
66,2225998,-7.8748,-3.1035,4.9603,0.2100,-0.4200,0.2100,1001.8262,-7.8945,-3.0942,4.9268,1590693310,N
67,2224692,-8.0112,-3.0772,4.9627,-1.2600,-0.1400,-0.6300,1001.8265,-7.8984,-3.0931,4.9212,1590693310,N
67,2221871,-7.9490,-3.0556,4.9484,0.0700,-0.1400,0.2100,1001.8270,-7.9019,-3.0815,4.9229,1590693310,N
66,2220453,-7.9585,-3.0700,4.9651,-0.2100,-0.3500,-0.0700,1001.8256,-7.9012,-3.0769,4.9268,1590693310,N
66,2220734,-8.0207,-3.0317,4.9651,-0.2100,0.0700,-0.1400,1001.8250,-7.9086,-3.0632,4.9235,1590693310,N
66,2220943,-8.0207,-3.0724,4.9077,-0.1400,-0.1400,0.0700,1001.8248,-7.9170,-3.0600,4.9120,1590693310,N
67,2220766,-7.9513,-3.1083,4.9268,-0.6300,-0.0700,-0.2800,1001.8249,-7.9149,-3.0707,4.9088,1590693311,N
66,2220783,-7.9944,-3.0293,4.9388,-0.2100,-0.4200,-0.2100,1001.8243,-7.9172,-3.0610,4.9111,1590693311,N
67,2220885,-7.9322,-3.0724,4.9436,-0.2100,-0.2100,-0.2100,1001.8240,-7.9132,-3.0637,4.9157,1590693311,N
66,2219080,-7.9466,-3.0556,4.9077,0.6300,-0.4900,0.2800,1001.8237,-7.9148,-3.0573,4.9173,1590693311,N
67,2207888,-7.8796,-3.1466,4.8861,0.4900,-0.0700,0.2800,1001.8234,-7.9107,-3.0726,4.9142,1590693311,N
67,2204195,-8.0040,-3.0556,4.9340,-0.6300,-0.1400,-0.3500,1001.8234,-7.9148,-3.0691,4.9098,1590693311,N
67,2207901,-7.9466,-3.1537,4.8933,-0.3500,-0.7700,-0.2800,1001.8237,-7.9094,-3.0873,4.9072,1590693311,N
67,2214876,-7.9035,-3.0676,4.9508,-0.2800,-0.5600,-0.1400,1001.8243,-7.9034,-3.0854,4.9181,1590693311,N
68,2218811,-7.8915,-3.0580,4.9388,-0.1400,-0.2800,-0.2800,1001.8240,-7.8997,-3.0831,4.9255,1590693311,N
67,2221418,-7.9561,-3.1322,4.9316,-0.2800,0.1400,-0.2800,1001.8240,-7.9003,-3.0915,4.9191,1590693311,N
68,2224344,-7.8772,-3.0030,4.9986,-0.1400,0.1400,-0.4900,1001.8243,-7.8953,-3.0778,4.9358,1590693312,N
68,2227515,-7.9442,-3.0748,4.9771,0.0700,-0.0700,-0.4900,1001.8242,-7.8927,-3.0765,4.9407,1590693312,N
68,2230337,-7.9753,-2.9719,5.0297,0.4200,-0.1400,-0.0700,1001.8240,-7.8949,-3.0499,4.9536,1590693312,N
68,2230632,-7.9370,-3.0796,4.9484,0.4200,0.1400,0.0700,1001.8241,-7.8973,-3.0511,4.9491,1590693312,N
68,2230501,-7.9298,-3.0508,4.9508,-0.4200,0.4200,-0.3500,1001.8244,-7.9004,-3.0527,4.9432,1590693312,N
69,2231933,-7.9777,-3.1346,4.9316,-0.4200,0.5600,-0.1400,1001.8242,-7.9053,-3.0656,4.9274,1590693312,N
69,2233609,-7.9585,-3.1155,4.9077,-0.4200,0.2100,-0.2800,1001.8235,-7.9083,-3.0756,4.9163,1590693312,N
69,2234956,-7.9537,-3.0939,4.9101,-0.4200,0.1400,-0.0700,1001.8233,-7.9119,-3.0787,4.9086,1590693312,N
69,2236720,-7.9825,-3.0054,4.9531,-0.4200,0.1400,-0.2800,1001.8233,-7.9167,-3.0637,4.9101,1590693312,N
69,2238368,-7.9202,-3.1178,4.9005,-0.2100,-0.4900,0.2800,1001.8238,-7.9142,-3.0731,4.9082,1590693312,N
69,2239547,-7.9179,-3.0891,4.9316,-0.2100,-0.3500,0.2800,1001.8237,-7.9117,-3.0745,4.9115,1590693313,N
70,2239381,-7.9466,-2.9815,4.9460,-0.4900,0.3500,-0.2800,1001.8233,-7.9170,-3.0580,4.9132,1590693313,N
69,2237199,-7.9872,-3.1226,4.9364,-0.0700,-0.0700,0.2100,1001.8234,-7.9176,-3.0643,4.9084,1590693313,N
70,2235360,-7.9322,-3.0772,4.9436,-0.2800,0.1400,-0.0700,1001.8237,-7.9158,-3.0661,4.9101,1590693313,N
70,2234889,-7.9872,-2.9934,4.9866,0.2100,0.0700,-0.2100,1001.8235,-7.9173,-3.0476,4.9192,1590693313,N
70,2234454,-7.9585,-3.0724,4.8981,0.2100,0.0700,-0.2100,1001.8234,-7.9197,-3.0512,4.9132,1590693313,N
70,2234621,-7.9609,-3.0843,4.9149,-0.3500,-0.0700,-0.2100,1001.8234,-7.9198,-3.0578,4.9088,1590693313,N
70,2235058,-7.9585,-3.0700,4.9268,0.0700,-0.2800,-0.0700,1001.8229,-7.9186,-3.0580,4.9106,1590693313,N
70,2235246,-7.9370,-3.1250,4.9292,-0.1400,-0.1400,0.0700,1001.8228,-7.9149,-3.0688,4.9100,1590693313,N
70,2235347,-7.9920,-3.0556,4.8933,-0.2800,-0.2100,-0.0700,1001.8222,-7.9212,-3.0648,4.9023,1590693313,N
70,2234750,-7.9466,-3.0006,5.0010,-0.4900,-0.0700,-0.3500,1001.8214,-7.9168,-3.0531,4.9166,1590693314,N
70,2232175,-7.9059,-3.1083,4.9196,0.1400,-0.2100,0.2800,1001.8205,-7.9132,-3.0614,4.9173,1590693314,N
70,2230043,-7.9418,-3.1131,4.9173,-0.2800,-0.0700,-0.2100,1001.8197,-7.9116,-3.0718,4.9134,1590693314,N
70,2229732,-7.9561,-3.0102,4.9388,0.1400,0.0700,0.0700,1001.8187,-7.9162,-3.0566,4.9154,1590693314,N
70,2229918,-7.9705,-3.1418,4.9316,-0.1400,0.0700,0.0700,1001.8181,-7.9153,-3.0686,4.9095,1590693314,N
70,2229677,-7.9825,-3.0796,4.9508,-0.3500,-0.1400,-0.1400,1001.8182,-7.9151,-3.0683,4.9099,1590693314,N
69,2229750,-7.9705,-3.1226,4.9173,-0.0700,-0.3500,-0.0700,1001.8181,-7.9137,-3.0762,4.9073,1590693314,N
70,2229546,-7.9777,-3.1394,4.9771,-0.1400,-0.3500,-0.1400,1001.8173,-7.9071,-3.0840,4.9130,1590693314,N
70,2229436,-7.9753,-3.0676,4.9460,-0.3500,0.0700,-0.0700,1001.8172,-7.9104,-3.0782,4.9112,1590693314,N
70,2229241,-7.9418,-3.0150,4.9819,0.7700,-0.2100,0.1400,1001.8167,-7.9088,-3.0595,4.9255,1590693314,N
69,2226646,-7.9466,-3.0724,4.9316,0.7700,-0.1400,0.0700,1001.8163,-7.9090,-3.0567,4.9270,1590693315,N
70,2224486,-7.9226,-3.0987,4.9531,-0.2100,-0.1400,-0.2100,1001.8161,-7.9043,-3.0650,4.9294,1590693315,N
69,2224552,-7.9394,-3.0485,4.8957,-0.2100,-0.3500,0.0700,1001.8167,-7.9091,-3.0621,4.9233,1590693315,N
69,2225233,-7.9537,-3.0939,4.9651,-0.3500,-0.7700,-0.3500,1001.8168,-7.9022,-3.0688,4.9303,1590693315,N
69,2225188,-7.9968,-3.0652,4.9819,-0.0700,-0.7700,-0.0700,1001.8170,-7.9008,-3.0635,4.9359,1590693315,N
69,2225924,-7.9131,-3.0987,4.9244,-0.0700,-0.1400,-0.2100,1001.8173,-7.8992,-3.0714,4.9336,1590693315,N
70,2227998,-7.9298,-3.0508,4.9675,0.0700,-0.0700,-0.2100,1001.8182,-7.8981,-3.0663,4.9384,1590693315,N
69,2230180,-7.8939,-3.0221,5.0297,0.0700,-0.2100,-0.1400,1001.8178,-7.8909,-3.0566,4.9559,1590693315,N
69,2232479,-7.9322,-3.0269,4.9508,0.3500,0.0700,-0.2800,1001.8173,-7.8942,-3.0498,4.9549,1590693315,N
69,2232876,-7.9657,-3.0461,4.9579,0.0700,0.2100,-0.1400,1001.8170,-7.8994,-3.0459,4.9490,1590693315,N
69,2232149,-7.9370,-3.0508,5.0034,-0.2100,0.2100,-0.1400,1001.8167,-7.8980,-3.0447,4.9520,1590693316,N
69,2233596,-7.9466,-3.0413,4.9531,-0.0700,0.6300,-0.2100,1001.8176,-7.9037,-3.0424,4.9443,1590693316,N
69,2236011,-7.9202,-3.0987,4.9077,-0.1400,0.4200,-0.3500,1001.8183,-7.9055,-3.0552,4.9334,1590693316,N
69,2237824,-7.9179,-3.0508,4.9292,-0.2100,0.4200,-0.2800,1001.8192,-7.9079,-3.0560,4.9291,1590693316,N
68,2239874,-7.9825,-3.1155,4.9077,-0.4900,0.3500,-0.2800,1001.8195,-7.9129,-3.0668,4.9144,1590693316,N
69,2242233,-7.9011,-3.0915,4.9795,-0.9800,0.1400,-0.5600,1001.8201,-7.9047,-3.0769,4.9212,1590693316,N
69,2243718,-7.9394,-3.1083,4.8335,-0.4200,-0.2800,-0.1400,1001.8204,-7.9112,-3.0865,4.9049,1590693316,N
69,2243965,-7.9657,-3.0389,4.8957,-0.7700,-0.2100,0.0700,1001.8206,-7.9183,-3.0780,4.8986,1590693316,N
69,2241807,-7.9561,-3.0700,4.9412,-0.1400,-0.2100,0.2100,1001.8200,-7.9181,-3.0728,4.9022,1590693316,N
68,2239882,-7.9825,-3.0820,4.9029,-0.4900,0.2800,-0.2100,1001.8202,-7.9230,-3.0740,4.8936,1590693316,N
68,2239552,-7.8963,-3.0748,4.9675,0.2100,0.2800,0.0700,1001.8200,-7.9166,-3.0716,4.9054,1590693317,N
68,2239524,-7.9777,-3.1059,4.8622,-0.2100,0.2800,0.0700,1001.8191,-7.9246,-3.0760,4.8897,1590693317,N
68,2239464,-7.9202,-3.0580,4.9723,-0.1400,-0.0700,-0.1400,1001.8186,-7.9177,-3.0719,4.9034,1590693317,N
68,2239363,-7.9729,-3.0461,4.8933,0.1400,-0.0700,0.0700,1001.8174,-7.9235,-3.0639,4.8991,1590693317,N
68,2239385,-7.9346,-3.0891,4.9819,-0.2100,-0.1400,0.1400,1001.8163,-7.9166,-3.0654,4.9093,1590693317,N
68,2239396,-7.9131,-3.1394,4.8766,0.0700,-0.5600,0.1400,1001.8162,-7.9131,-3.0794,4.9062,1590693317,N
68,2238295,-7.9801,-3.1202,4.9340,-1.2600,-0.5600,-0.6300,1001.8154,-7.9092,-3.0920,4.9046,1590693317,N
68,2235573,-7.9609,-3.0508,4.9555,-0.0700,-0.0700,0.2100,1001.8152,-7.9115,-3.0794,4.9087,1590693317,N
67,2233755,-7.9537,-3.0820,4.9866,-0.3500,-0.2100,-0.2100,1001.8150,-7.9065,-3.0782,4.9176,1590693317,N
68,2233703,-7.9968,-3.0341,4.9484,-0.2800,-0.2100,-0.1400,1001.8167,-7.9111,-3.0670,4.9172,1590693317,N
67,2233755,-7.9681,-3.0939,4.9436,0.0700,-0.1400,-0.1400,1001.8179,-7.9101,-3.0690,4.9175,1590693318,N
68,2233364,-7.9753,-3.0532,4.9938,-0.5600,0.0700,-0.2100,1001.8199,-7.9093,-3.0639,4.9219,1590693318,N
67,2233110,-7.9202,-3.0317,4.9077,-0.2100,-0.4200,-0.2100,1001.8218,-7.9100,-3.0606,4.9228,1590693318,N
68,2232793,-7.9131,-3.0891,4.9292,0.0700,-0.3500,0.0700,1001.8231,-7.9068,-3.0651,4.9252,1590693318,N
67,2232579,-7.9992,-3.1155,4.9340,-0.4200,0.2800,0.0700,1001.8242,-7.9123,-3.0700,4.9134,1590693318,N
67,2230688,-7.9298,-3.1442,4.9077,-0.2800,0.0700,-0.2100,1001.8245,-7.9099,-3.0849,4.9079,1590693318,N
67,2228074,-7.9442,-3.0173,4.9531,-0.3500,-0.0700,-0.1400,1001.8249,-7.9114,-3.0719,4.9135,1590693318,N
67,2227281,-7.9107,-3.0365,4.8861,-0.2100,-0.3500,-0.2100,1001.8253,-7.9129,-3.0690,4.9130,1590693318,N
67,2227807,-7.9346,-3.0485,4.9316,-0.4900,-0.2800,-0.2800,1001.8250,-7.9118,-3.0676,4.9156,1590693318,N
67,2227936,-7.9609,-3.0389,4.9149,-0.1400,-0.2100,-0.0700,1001.8251,-7.9155,-3.0612,4.9136,1590693318,N
67,2227637,-7.9920,-3.1035,4.9077,-0.6300,-0.4900,-0.4200,1001.8250,-7.9155,-3.0709,4.9076,1590693319,N
67,2228065,-7.9035,-3.0317,4.9795,-0.1400,-1.1900,-0.1400,1001.8245,-7.9045,-3.0651,4.9289,1590693319,N
67,2227906,-7.9250,-3.0245,4.9795,0.3500,-0.7700,0.2100,1001.8232,-7.9007,-3.0535,4.9423,1590693319,N
67,2228648,-7.9418,-3.0556,4.9101,0.1400,-0.4200,-0.0700,1001.8221,-7.9034,-3.0533,4.9379,1590693319,N
67,2228840,-7.9490,-3.1011,4.9460,0.2100,-0.1400,-0.1400,1001.8201,-7.9019,-3.0597,4.9364,1590693319,N
67,2229442,-7.9561,-3.0293,4.9938,-0.5600,0.1400,-0.4900,1001.8182,-7.9016,-3.0548,4.9399,1590693319,N
67,2231602,-7.9466,-3.0867,5.0225,-0.3500,0.4200,-0.2800,1001.8164,-7.8977,-3.0583,4.9441,1590693319,N
67,2234650,-7.9155,-3.0963,4.9986,-0.3500,0.1400,-0.5600,1001.8151,-7.8910,-3.0674,4.9491,1590693319,N
67,2237427,-7.9346,-3.0556,4.9986,-0.0700,0.1400,-0.2800,1001.8146,-7.8901,-3.0634,4.9531,1590693319,N
67,2240495,-7.9801,-3.1107,4.9484,-0.4200,0.6300,-0.3500,1001.8153,-7.8963,-3.0706,4.9386,1590693319,N
67,2243840,-7.9322,-3.0508,4.9436,-0.4200,0.2800,-0.4900,1001.8155,-7.8990,-3.0695,4.9351,1590693320,N
67,2246787,-7.9490,-3.0652,4.9460,0.0700,-0.0700,-0.4900,1001.8151,-7.8990,-3.0689,4.9354,1590693320,N
67,2247575,-7.9633,-3.1202,4.9364,-0.7700,0.3500,-0.4200,1001.8146,-7.9015,-3.0800,4.9245,1590693320,N
67,2246034,-7.9513,-3.1011,4.8933,-0.2800,-0.0700,-0.1400,1001.8145,-7.9057,-3.0843,4.9150,1590693320,N
67,2245146,-7.9633,-3.0963,4.9388,-0.5600,-0.1400,-0.4200,1001.8151,-7.9052,-3.0878,4.9136,1590693320,N
68,2245397,-7.9729,-3.0580,4.9149,-0.2800,-0.1400,0.0700,1001.8156,-7.9113,-3.0798,4.9089,1590693320,N
67,2245836,-7.9322,-3.0915,4.9484,-0.2800,-0.1400,0.0700,1001.8153,-7.9090,-3.0803,4.9122,1590693320,N
68,2245756,-7.9705,-3.0748,4.9244,-0.3500,-0.1400,-0.2800,1001.8152,-7.9109,-3.0792,4.9098,1590693320,N
68,2246040,-8.0040,-3.0796,4.8909,-0.2100,-0.2100,0.0700,1001.8145,-7.9184,-3.0757,4.8999,1590693320,N
68,2246028,-7.9561,-3.0748,4.9412,0.1400,-0.2800,0.0700,1001.8140,-7.9166,-3.0717,4.9054,1590693320,N
68,2245979,-8.0088,-3.0891,4.9914,-0.1400,0.0700,0.2100,1001.8136,-7.9167,-3.0666,4.9083,1590693321,N
68,2244079,-7.9442,-3.1705,4.9268,-0.1400,0.0700,0.0700,1001.8134,-7.9128,-3.0832,4.9043,1590693321,N
68,2241238,-7.9968,-3.0748,4.9196,-0.2800,-0.2100,-0.0700,1001.8134,-7.9167,-3.0787,4.9007,1590693321,N
68,2239997,-7.9872,-3.0676,4.9651,-0.4900,-0.0700,-0.0700,1001.8140,-7.9169,-3.0735,4.9036,1590693321,N
68,2239887,-7.9274,-3.0724,4.9292,-0.2800,-0.4200,-0.0700,1001.8145,-7.9136,-3.0740,4.9087,1590693321,N
68,2239387,-7.9394,-3.0604,4.9723,-0.2100,-0.1400,-0.0700,1001.8148,-7.9102,-3.0697,4.9169,1590693321,N
68,2238869,-7.8580,-3.0867,4.9603,-0.0700,-0.2100,0.0700,1001.8150,-7.9016,-3.0741,4.9280,1590693321,N
68,2238445,-7.9609,-3.0724,4.9364,-0.4200,-0.1400,-0.2100,1001.8150,-7.9039,-3.0737,4.9245,1590693321,N
68,2238117,-7.9442,-3.0867,4.9077,-0.4200,-0.0700,-0.2100,1001.8149,-7.9066,-3.0776,4.9178,1590693321,N
68,2237422,-7.9657,-2.9647,4.9364,0.0700,0.0700,-0.1400,1001.8142,-7.9145,-3.0542,4.9198,1590693321,N
68,2234525,-7.9490,-3.0676,4.9555,0.0700,-0.1400,0.1400,1001.8144,-7.9132,-3.0527,4.9227,1590693322,N
68,2232328,-7.9513,-3.0461,4.8981,-0.2800,-0.0700,-0.2800,1001.8138,-7.9168,-3.0533,4.9165,1590693322,N
68,2232251,-7.8987,-3.0652,4.9436,0.1400,-0.0700,-0.2800,1001.8128,-7.9109,-3.0570,4.9238,1590693322,N
68,2232555,-7.9681,-3.0939,4.9388,-0.2100,0.0700,-0.1400,1001.8125,-7.9117,-3.0619,4.9194,1590693322,N
68,2232054,-7.9394,-3.0461,4.9412,-0.2100,-0.2800,-0.0700,1001.8122,-7.9112,-3.0585,4.9222,1590693322,N
68,2231991,-7.9777,-3.1178,4.8814,0.1400,-0.2100,-0.0700,1001.8116,-7.9146,-3.0674,4.9113,1590693322,N
68,2231655,-7.9346,-3.0987,4.9531,-0.2100,-0.2100,-0.0700,1001.8120,-7.9099,-3.0722,4.9158,1590693322,N
68,2231229,-7.9322,-3.0556,4.9053,-0.2800,-0.7000,0.0700,1001.8118,-7.9104,-3.0699,4.9165,1590693322,N
68,2229950,-7.9442,-3.0700,4.9292,-1.4000,-0.2800,-0.7000,1001.8118,-7.9087,-3.0779,4.9142,1590693322,N
68,2227218,-7.9801,-3.0173,4.9412,-1.4000,-0.0700,0.1400,1001.8115,-7.9166,-3.0668,4.9084,1590693322,N
68,2226214,-7.9394,-3.1202,4.9173,-0.6300,-0.7000,-0.6300,1001.8115,-7.9090,-3.0824,4.9109,1590693323,N
68,2226988,-7.9418,-3.0197,4.9842,0.2100,-0.6300,0.2100,1001.8124,-7.9062,-3.0658,4.9257,1590693323,N
68,2228186,-7.9322,-3.0724,4.9842,-0.0700,-0.2800,-0.4900,1001.8130,-7.8993,-3.0677,4.9356,1590693323,N
68,2230049,-7.9226,-3.0843,4.9364,-0.3500,-0.1400,-0.2100,1001.8131,-7.8988,-3.0723,4.9336,1590693323,N
68,2233035,-7.9346,-3.0700,4.9962,-0.3500,-0.0700,-0.0700,1001.8138,-7.8961,-3.0700,4.9393,1590693323,N
69,2236196,-7.9155,-3.1107,4.9986,0.1400,-0.1400,-0.2100,1001.8149,-7.8887,-3.0755,4.9477,1590693323,N
68,2239163,-7.9777,-3.0126,4.9842,0.4200,0.3500,-0.0700,1001.8156,-7.8960,-3.0570,4.9475,1590693323,N
68,2240001,-7.9585,-3.0987,4.9508,0.0700,0.2800,-0.2100,1001.8162,-7.8983,-3.0621,4.9407,1590693323,N
68,2239923,-7.9083,-3.0867,4.9484,-0.2100,0.2100,-0.4900,1001.8166,-7.8961,-3.0695,4.9397,1590693323,N
69,2240620,-8.0040,-3.0317,4.9196,-0.1400,0.3500,-0.2100,1001.8164,-7.9079,-3.0594,4.9270,1590693323,N
68,2241907,-7.9394,-3.1250,4.9077,-0.2100,0.3500,-0.4900,1001.8161,-7.9080,-3.0738,4.9179,1590693324,N
68,2242997,-7.9370,-3.0700,4.9340,-0.4200,0.2800,-0.2800,1001.8163,-7.9095,-3.0742,4.9153,1590693324,N
68,2244774,-7.9346,-3.1250,4.9005,-0.3500,0.2100,-0.2800,1001.8166,-7.9100,-3.0854,4.9075,1590693324,N
69,2247366,-7.9513,-3.1537,4.9125,-0.4900,-0.1400,-0.3500,1001.8167,-7.9072,-3.0996,4.9029,1590693324,N
69,2248864,-7.9801,-3.1131,4.9316,-0.2800,-0.9100,0.4200,1001.8167,-7.9072,-3.0969,4.9047,1590693324,N
69,2248186,-7.9298,-3.0963,4.9101,-0.7700,-0.0700,-0.2100,1001.8172,-7.9079,-3.0998,4.9017,1590693324,N
69,2245680,-7.9418,-3.0485,4.9268,-0.1400,0.0700,-0.1400,1001.8173,-7.9107,-3.0894,4.9038,1590693324,N
68,2243886,-7.9561,-3.1107,4.9747,-0.2100,-0.0700,-0.1400,1001.8170,-7.9063,-3.0904,4.9101,1590693324,N
69,2243626,-7.9729,-3.0341,4.9292,-0.4200,-0.0700,0.0700,1001.8166,-7.9128,-3.0775,4.9078,1590693324,N
69,2243734,-8.0040,-3.0820,4.9268,-0.2100,-0.0700,0.1400,1001.8161,-7.9180,-3.0731,4.9023,1590693324,N
68,2243407,-7.9322,-3.0915,4.9388,-0.4900,-0.1400,-0.2100,1001.8157,-7.9140,-3.0779,4.9057,1590693325,N
68,2243095,-7.9537,-2.9240,5.0441,-3.6400,0.6300,-1.6100,1001.8156,-7.9133,-3.0670,4.9136,1590693325,N
68,2240482,-8.2648,-3.0126,5.2714,-9.8000,3.9200,-6.9300,1001.8146,-7.9096,-3.1063,4.8948,1590693325,N
69,2240110,-8.8295,-2.1033,5.7763,-64.6800,13.9300,-47.2500,1001.8143,-7.8655,-3.3982,4.7704,1590693325,N
68,2239696,-8.3246,-5.1685,4.7521,-82.3900,39.4100,-87.7800,1001.8141,-7.6170,-4.4566,4.2768,1590693325,N
68,2727027,-9.2770,-6.0969,3.0006,-90.5800,15.0500,-124.0400,1001.8140,-6.9749,-5.8157,3.7012,1590693325,N
68,3257309,-6.7430,-7.5565,-0.2273,-122.0100,-32.7600,-137.2000,1001.8125,-5.6160,-7.6603,2.4393,1590693325,N
69,3327143,-4.8168,-7.2503,-0.9141,-85.5400,-46.9000,-103.3900,1001.8120,-3.8127,-8.9213,1.4296,1590693325,N
68,3462106,-0.8495,-7.8150,-2.4287,-98.0700,-55.0900,-74.9700,1001.8124,-1.3506,-9.7131,-0.0498,1590693325,N
68,3254850,1.0385,-6.7621,-1.7061,-104.5800,-9.0300,-56.6300,1001.8134,1.2337,-9.6318,-1.3701,1590693325,N
68,2943665,1.5458,-6.4128,-2.9264,-86.9400,58.7300,-35.9100,1001.8148,3.7880,-8.8374,-1.9293,1590693326,N
69,3318596,3.3308,-7.4728,-4.7402,-57.3300,106.0500,-10.3600,1001.8164,-6.4882,-3.2686,-6.5871,1590693326,N
68,4047547,5.4461,-8.5663,-5.8959,46.0600,82.4600,25.6200,1001.8170,-4.1560,-5.4503,-7.0137,1590693326,N
68,3328351,3.5533,-8.4921,-6.3027,2.3100,41.5100,45.8500,1001.8184,-3.0572,-5.7265,-7.3506,1590693326,N
68,4197860,3.5821,-9.1406,-6.2453,95.0600,77.9800,6.3000,1001.8202,-1.4382,-7.2073,-6.4928,1590693326,N
68,2850737,2.1200,-8.2528,-4.1468,-14.7000,-13.6500,-12.1100,1001.8221,-0.8830,-6.2554,-7.5007,1590693326,N
68,2434624,2.2110,-7.3555,-3.6658,-52.5000,2.3100,-26.5300,1001.8242,-0.4709,-5.3289,-8.2190,1590693326,N
68,2391120,3.2183,-8.5783,-5.0632,39.9000,7.2800,5.5300,1001.8271,0.4119,-6.3084,-7.4970,1590693326,N
68,2401115,3.0054,-8.3797,-3.5055,-0.5600,2.3800,0.2800,1001.8301,1.1588,-7.5014,-6.2093,1590693326,N
68,2383331,3.6778,-7.3029,-2.8953,42.5600,15.5400,-2.5900,1001.8328,1.6282,-8.2526,-5.0413,1590693326,N
68,2371683,3.0030,-8.6022,-3.4768,-8.0500,4.8300,0.7700,1001.8365,1.9306,-8.4647,-4.5598,1590693327,N
68,2364018,2.8522,-8.4730,-4.2855,-31.9900,-5.8800,-0.3500,1001.8394,2.1092,-8.3252,-4.7342,1590693327,N
68,2367385,2.9623,-7.9896,-4.1420,-47.8800,-1.9600,-5.3200,1001.8414,2.3659,-8.0865,-5.0181,1590693327,N
68,2370088,2.7206,-8.3103,-4.6684,-38.0800,-20.3000,0.8400,1001.8426,2.3872,-7.8896,-5.3128,1590693327,N
68,2542009,2.7613,-7.7360,-5.4796,-4.9000,-24.9200,1.6100,1001.8430,2.3568,-7.7675,-5.5029,1590693327,N
68,2384482,2.3306,-7.7791,-5.4078,-8.3300,-17.7800,7.5600,1001.8436,2.2448,-7.7236,-5.6105,1590693327,N
67,2370517,2.0937,-7.6857,-5.6207,-4.2700,-17.7800,0.8400,1001.8441,2.1443,-7.6467,-5.7533,1590693327,N
68,2367799,2.1033,-7.6522,-5.5729,-5.4600,-5.8100,0.6300,1001.8445,2.1168,-7.6188,-5.8003,1590693327,N
67,2362809,2.0841,-7.5685,-5.6830,-6.7900,-3.6400,-0.2100,1001.8454,2.1047,-7.5752,-5.8615,1590693327,N
67,2354222,2.0459,-7.5637,-5.9366,-7.5600,-5.3200,2.0300,1001.8456,2.0614,-7.5193,-5.9482,1590693327,N
68,2348314,1.9525,-7.4800,-5.8457,-0.6300,-0.4900,1.1200,1001.8469,2.0361,-7.5304,-5.9428,1590693328,N
67,2347148,1.9023,-7.4393,-5.8600,-3.9200,-4.6200,2.0300,1001.8479,1.9859,-7.5073,-5.9889,1590693328,N
67,2344178,1.8114,-7.4465,-5.9557,-5.1800,-4.9700,1.6100,1001.8488,1.9267,-7.4709,-6.0534,1590693328,N
67,2341495,1.7946,-7.4225,-6.1376,-2.0300,-3.2900,1.3300,1001.8492,1.8800,-7.4457,-6.0990,1590693328,N
67,2341400,1.7324,-7.3986,-6.0156,-0.3500,-0.2100,-0.9100,1001.8493,1.8589,-7.4445,-6.1069,1590693328,N
67,2340778,1.7444,-7.3986,-6.0179,-3.4300,-3.3600,0.9800,1001.8500,1.8214,-7.4238,-6.1433,1590693328,N
67,2338360,1.6582,-7.2885,-6.0849,-4.6900,1.6100,-2.2400,1001.8517,1.8153,-7.3871,-6.1892,1590693328,N
67,2329057,1.8138,-7.3627,-6.3482,-6.4400,-5.5300,6.4400,1001.8539,1.7542,-7.3512,-6.2493,1590693328,N
67,2322261,1.4309,-7.2670,-6.1304,2.3800,-8.2600,4.7600,1001.8557,1.6326,-7.3700,-6.2601,1590693328,N
67,2325817,1.4955,-7.2957,-6.2046,-1.7500,0.4900,-2.5900,1001.8568,1.6255,-7.3450,-6.2912,1590693328,N
67,2326733,1.4692,-7.3077,-6.2166,2.3800,0.2800,0.9800,1001.8578,1.5925,-7.3756,-6.2638,1590693329,N
67,2327535,1.4572,-7.3484,-6.1759,3.9900,7.1400,-2.8700,1001.8589,1.6137,-7.4249,-6.1997,1590693329,N
67,2323919,1.8568,-7.4943,-6.4056,8.4000,2.8000,5.9500,1001.8597,1.6296,-7.5119,-6.0898,1590693329,N
67,2326703,2.6273,-7.7575,-6.7382,43.4000,55.9300,-2.9400,1001.8608,2.0038,-7.8660,-5.5028,1590693329,N
67,2338201,3.9266,-6.2094,-4.9699,-19.5300,-1.2600,-33.5300,1001.8610,2.6696,-7.3825,-5.8772,1590693329,N
67,2325409,4.7067,-10.6672,-7.2096,56.3500,-6.7900,-1.7500,1001.8614,2.6954,-7.7258,-5.4052,1590693329,N
67,2665398,4.1803,-9.6646,-6.2859,-16.9400,6.3000,23.1700,1001.8611,2.6536,-7.7834,-5.3430,1590693329,N
67,2874956,2.8570,-7.6044,-5.4150,69.1600,-18.0600,85.8900,1001.8613,1.9805,-8.5046,-4.4632,1590693329,N
66,2760156,0.8542,-6.4893,-3.6514,105.2100,-38.1500,133.7000,1001.8604,0.4134,-9.5399,-2.2340,1590693329,N
67,2399246,-4.4865,-5.7978,-0.7561,145.4600,-39.6200,122.0800,1001.8597,-0.6146,-7.9628,-5.6909,1590693329,N
67,2355516,-5.0345,-5.6136,0.9595,252.4900,-24.0800,141.1200,1001.8586,-2.5817,-9.2362,-2.0487,1590693330,N
67,2374855,-10.8993,-5.2187,5.8624,40.9500,-61.3200,85.8900,1001.8573,-3.7126,-9.0416,-0.7983,1590693330,N
67,4197858,-14.9982,3.4768,11.9952,166.5300,107.3800,89.5300,1001.8555,-4.8802,-8.3164,1.7867,1590693330,N
66,2875953,-7.4106,-3.2279,5.1996,-117.1800,60.3400,-42.9800,1001.8530,-4.7375,-8.5506,0.7830,1590693330,N
67,2703365,-6.4534,-6.3099,4.5129,-14.2800,5.8100,-4.8300,1001.8495,-4.4041,-8.6918,1.1074,1590693330,N
67,2574465,-7.1402,-4.6971,4.5320,30.3100,7.5600,33.6000,1001.8436,-4.4959,-8.4953,1.9462,1590693330,N
67,2584615,-7.0540,-4.0989,5.3169,4.2000,-11.8300,17.8500,1001.8386,-4.4344,-8.3233,2.6886,1590693330,N
67,2469459,-7.0708,-4.6445,5.2068,6.7900,5.7400,37.3800,1001.8339,-4.7322,-8.0221,3.0697,1590693330,N
67,2530604,-7.9490,-3.1418,5.1039,-8.5400,0.9800,42.2800,1001.8302,-5.8033,-7.2165,3.2272,1590693330,N
67,2916322,-8.1452,-0.9045,5.4748,31.2200,4.3400,26.6000,1001.8276,-7.0847,-5.5842,3.8463,1590693330,N
67,3052417,-7.9155,-1.7252,5.1829,-31.5000,-9.6600,-21.7700,1001.8253,-9.2971,-2.2810,2.1285,1590693331,N
68,2843507,-7.6834,-3.9912,5.3049,-32.7600,-3.0100,-25.8300,1001.8239,-8.9391,-2.8945,2.8081,1590693331,N
68,2614186,-7.6068,-4.2305,4.6828,-4.5500,2.3100,-8.8900,1001.8229,-8.6814,-3.2359,3.2146,1590693331,N
68,2578198,-7.5637,-4.0510,5.0034,3.4300,-0.2800,1.3300,1001.8215,-8.4696,-3.3912,3.5967,1590693331,N
68,2572773,-7.6355,-3.6778,4.9962,-1.8900,-0.1400,-1.1900,1001.8194,-8.3079,-3.4760,3.8816,1590693331,N
68,2556832,-7.6666,-3.8572,4.8909,0.8400,0.8400,-0.0700,1001.8176,-8.1797,-3.5497,4.0820,1590693331,N
68,2567978,-7.6307,-3.8548,4.9029,-0.8400,-0.2100,0.2800,1001.8168,-8.0685,-3.6132,4.2443,1590693331,N
68,2569448,-7.6786,-3.6754,5.0297,-0.4200,-0.0700,0.2800,1001.8146,-7.9831,-3.6243,4.3937,1590693331,N
68,2566576,-7.6499,-3.7615,4.9579,0.2800,0.2800,-0.2100,1001.8127,-7.9103,-3.6500,4.5028,1590693331,N
69,2561659,-7.6618,-3.7472,4.9220,-0.7700,-0.2800,-0.4200,1001.8107,-7.8526,-3.6737,4.5837,1590693331,N
69,2553764,-7.6522,-3.7065,4.9795,0.0700,-0.2100,0.2800,1001.8093,-7.8065,-3.6763,4.6598,1590693332,N
69,2552839,-7.6499,-3.7328,4.9938,0.2100,-0.2100,0.2800,1001.8088,-7.7663,-3.6814,4.7225,1590693332,N
69,2552712,-7.6259,-3.7519,4.9938,-0.2800,-0.4200,0.2800,1001.8082,-7.7303,-3.6921,4.7730,1590693332,N
69,2544098,-7.6738,-3.7304,4.9268,-0.7000,-0.3500,-0.2800,1001.8084,-7.7094,-3.7014,4.7995,1590693332,N
69,2531778,-7.6499,-3.7448,5.0201,0.7700,-0.7000,0.4900,1001.8090,-7.6836,-3.6992,4.8424,1590693332,N
69,2507136,-7.6259,-3.8620,4.9699,-3.5000,-0.9100,-0.7000,1001.8092,-7.6544,-3.7451,4.8534,1590693332,N
69,2493947,-7.6810,-3.8955,5.1111,1.8200,1.1900,1.7500,1001.8099,-7.6410,-3.7391,4.8789,1590693332,N
69,2498516,-7.5900,-3.4528,4.9196,-4.4800,1.6800,-3.4300,1001.8100,-7.6463,-3.7282,4.8790,1590693332,N
69,2491807,-7.6905,-4.2903,4.5870,-1.8900,-0.2800,-0.7700,1001.8096,-7.6359,-3.8426,4.8060,1590693332,N
69,2500089,-7.7001,-3.2399,5.2594,3.7800,-2.0300,3.4300,1001.8095,-7.6471,-3.6834,4.9116,1590693332,N
68,2511595,-7.5254,-3.8955,5.1470,-0.9100,0.9100,-0.9800,1001.8098,-7.6073,-3.7266,4.9409,1590693333,N
69,2494929,-7.6499,-3.9458,4.6995,-1.9600,0.1400,-1.5400,1001.8101,-7.6115,-3.7883,4.8872,1590693333,N
69,2494599,-7.5900,-3.5964,5.0225,1.4700,-1.5400,0.5600,1001.8107,-7.6047,-3.7440,4.9317,1590693333,N
69,2492714,-7.6140,-3.8931,4.9460,-1.6800,-1.1200,-1.5400,1001.8105,-7.5836,-3.7862,4.9319,1590693333,N
69,2482367,-7.6116,-3.7902,4.9627,-0.6300,-0.7000,-0.4900,1001.8103,-7.5778,-3.7907,4.9374,1590693333,N
68,2482034,-7.6211,-3.7783,4.9938,-1.2600,0.1400,-1.3300,1001.8102,-7.5728,-3.7972,4.9400,1590693333,N
69,2485859,-7.5685,-3.8931,4.9555,-0.7700,0.6300,-1.3300,1001.8091,-7.5628,-3.8238,4.9348,1590693333,N
68,2493292,-7.5374,-3.8931,4.9173,-1.1900,0.3500,-1.1900,1001.8087,-7.5548,-3.8497,4.9270,1590693333,N
68,2506192,-7.6140,-3.9314,4.8718,-0.9800,0.5600,-0.7000,1001.8090,-7.5590,-3.8698,4.9047,1590693333,N
69,2511840,-7.5589,-3.9505,4.8383,-1.2600,-0.2800,-0.2100,1001.8086,-7.5577,-3.8928,4.8886,1590693333,N
68,2510782,-7.6044,-3.8166,4.8909,-0.0700,0.4200,-0.1400,1001.8074,-7.5674,-3.8776,4.8856,1590693334,N
67,2502085,-7.5374,-3.9577,4.8694,-0.4200,-0.1400,-0.1400,1001.8064,-7.5602,-3.8963,4.8818,1590693334,N
68,2504333,-7.5852,-3.8572,4.9149,0.4200,-0.4900,0.4900,1001.8054,-7.5617,-3.8827,4.8903,1590693334,N
68,2498494,-7.5948,-3.9194,4.9340,-0.1400,-0.3500,0.4900,1001.8047,-7.5595,-3.8831,4.8934,1590693334,N
68,2488494,-7.6116,-3.8836,4.9460,0.4200,-0.5600,0.6300,1001.8046,-7.5596,-3.8730,4.9013,1590693334,N
68,2485272,-7.5757,-3.8979,4.9699,0.2100,-0.2100,-0.2100,1001.8052,-7.5519,-3.8743,4.9121,1590693334,N
67,2483163,-7.6116,-3.8070,4.9220,0.7700,0.2100,0.4900,1001.8049,-7.5630,-3.8523,4.9123,1590693334,N
67,2483917,-7.5541,-3.8692,4.9196,-0.8400,-0.7000,-0.1400,1001.8049,-7.5570,-3.8607,4.9149,1590693334,N
67,2475767,-7.6235,-3.7974,4.9699,0.2800,0.1400,0.6300,1001.8050,-7.5656,-3.8385,4.9192,1590693334,N
67,2470085,-7.6475,-3.8812,4.9723,-0.3500,0.1400,-0.2100,1001.8045,-7.5655,-3.8412,4.9172,1590693334,N
66,2469839,-7.6499,-3.8142,4.9603,0.2800,-0.0700,0.2100,1001.8052,-7.5710,-3.8275,4.9193,1590693335,N
66,2472007,-7.6307,-3.7735,4.9723,0.5600,0.2100,0.2800,1001.8060,-7.5770,-3.8084,4.9250,1590693335,N
67,2467529,-7.6403,-3.8213,4.9316,0.2100,-0.2800,0.1400,1001.8062,-7.5799,-3.8052,4.9230,1590693335,N
66,2464090,-7.5733,-3.8405,4.9316,-0.3500,-0.2800,-0.1400,1001.8063,-7.5747,-3.8139,4.9242,1590693335,N
66,2463131,-7.6044,-3.8692,4.9268,-0.0700,-0.2800,-0.1400,1001.8063,-7.5716,-3.8229,4.9221,1590693335,N
66,2460703,-7.6164,-3.8524,4.9579,-0.8400,-0.7000,-0.3500,1001.8052,-7.5660,-3.8304,4.9248,1590693335,N
66,2453861,-7.6499,-3.7161,4.9723,-0.7700,-0.1400,-0.2100,1001.8047,-7.5748,-3.8087,4.9282,1590693335,N
65,2444997,-7.6116,-3.7926,4.9747,0.0700,0.1400,0.0700,1001.8053,-7.5761,-3.8011,4.9320,1590693335,N
66,2445195,-7.6403,-3.8118,4.9819,-0.2100,-0.0700,-0.2800,1001.8062,-7.5752,-3.7999,4.9344,1590693335,N
66,2446379,-7.5972,-3.7400,4.9914,0.6300,0.2100,0.0700,1001.8065,-7.5771,-3.7829,4.9446,1590693335,N
65,2442920,-7.6618,-3.8142,4.9388,0.1400,-0.0700,0.1400,1001.8077,-7.5826,-3.7820,4.9366,1590693336,N
65,2439697,-7.6164,-3.7950,4.9675,-0.5600,-0.0700,-0.2100,1001.8088,-7.5812,-3.7847,4.9367,1590693336,N
66,2437861,-7.6164,-3.8237,4.9579,-0.5600,-0.1400,-0.0700,1001.8094,-7.5795,-3.7913,4.9344,1590693336,N
65,2435754,-7.5996,-3.7878,4.9627,-0.6300,-0.9800,-0.2800,1001.8097,-7.5732,-3.7940,4.9418,1590693336,N
65,2428922,-7.6403,-3.7759,4.9364,-0.8400,-0.0700,-0.2100,1001.8099,-7.5794,-3.7920,4.9340,1590693336,N
65,2420977,-7.6140,-3.7472,4.9723,0.1400,-0.0700,0.0700,1001.8110,-7.5817,-3.7799,4.9396,1590693336,N
67,2421741,-7.5829,-3.7615,4.9795,0.1400,0.2100,-0.1400,1001.8115,-7.5801,-3.7752,4.9457,1590693336,N
66,2425635,-7.6355,-3.7376,4.9819,0.7000,0.2800,0.2100,1001.8123,-7.5859,-3.7596,4.9488,1590693336,N
66,2427379,-7.6211,-3.8261,4.9627,-0.0700,-0.0700,-0.0700,1001.8127,-7.5830,-3.7691,4.9459,1590693336,N
67,2425974,-7.6044,-3.8118,5.0345,-0.4900,-0.4200,-0.3500,1001.8126,-7.5719,-3.7764,4.9574,1590693336,N
66,2426856,-7.6164,-3.7567,4.9819,-0.3500,-0.2100,-0.4200,1001.8121,-7.5719,-3.7738,4.9593,1590693337,N
67,2426071,-7.6355,-3.7926,4.9388,-1.3300,-0.7000,-0.7000,1001.8118,-7.5716,-3.7848,4.9515,1590693337,N
67,2427862,-7.5685,-3.7519,5.0225,-1.3300,-0.2800,-0.2100,1001.8116,-7.5663,-3.7837,4.9602,1590693337,N
67,2430996,-7.6259,-3.8907,4.9364,-0.7000,-0.4900,-0.6300,1001.8121,-7.5616,-3.8067,4.9499,1590693337,N
67,2439607,-7.5805,-3.8213,4.9962,-0.5600,0.3500,-0.4200,1001.8125,-7.5588,-3.8107,4.9510,1590693337,N
67,2453108,-7.5876,-3.8572,4.9699,-0.5600,0.5600,-0.7700,1001.8124,-7.5564,-3.8226,4.9456,1590693337,N
67,2464708,-7.6020,-3.9242,4.9866,-0.5600,0.2800,-0.6300,1001.8124,-7.5496,-3.8412,4.9415,1590693337,N
67,2474150,-7.6092,-3.8788,4.9244,-0.7700,0.1400,-0.7700,1001.8110,-7.5510,-3.8525,4.9306,1590693337,N
67,2493494,-7.5422,-3.8477,4.9555,-0.5600,0.5600,-0.4900,1001.8093,-7.5495,-3.8559,4.9302,1590693337,N
67,2503913,-7.5852,-3.9290,5.0034,-0.4900,0.2100,-0.1400,1001.8083,-7.5431,-3.8657,4.9323,1590693337,N
67,2507414,-7.6235,-3.8931,4.9699,0.5600,0.5600,-0.1400,1001.8083,-7.5469,-3.8619,4.9296,1590693338,N
68,2498918,-7.5900,-3.9577,4.9316,0.7000,0.5600,0.4200,1001.8081,-7.5488,-3.8690,4.9210,1590693338,N
68,2495675,-7.6044,-3.8644,4.9173,0.0700,-0.0700,0.0700,1001.8079,-7.5538,-3.8644,4.9169,1590693338,N
68,2499827,-7.6164,-3.8596,4.9268,0.5600,-0.4200,0.2800,1001.8077,-7.5573,-3.8559,4.9183,1590693338,N
68,2493787,-7.5852,-3.8596,4.9675,0.5600,-0.3500,0.2100,1001.8071,-7.5544,-3.8498,4.9276,1590693338,N
68,2487797,-7.6187,-3.9003,4.9795,0.0700,-0.0700,0.1400,1001.8073,-7.5528,-3.8513,4.9288,1590693338,N
69,2488607,-7.5972,-3.8046,4.9053,0.0700,-0.2800,-0.0700,1001.8085,-7.5593,-3.8422,4.9260,1590693338,N
69,2485920,-7.5948,-3.8716,4.8957,-0.2800,-0.2100,-0.0700,1001.8099,-7.5615,-3.8480,4.9180,1590693338,N
69,2482309,-7.6283,-3.8548,4.9268,0.8400,-0.2100,0.6300,1001.8106,-7.5672,-3.8377,4.9173,1590693338,N
69,2475154,-7.5972,-3.8429,4.8933,-0.6300,-0.2100,-0.2100,1001.8110,-7.5695,-3.8419,4.9105,1590693338,N
68,2468464,-7.6522,-3.8333,4.9675,-0.2100,-0.2100,0.0700,1001.8110,-7.5717,-3.8339,4.9133,1590693339,N
69,2469947,-7.6499,-3.8309,4.9101,-0.7700,-0.2800,-0.0700,1001.8113,-7.5772,-3.8328,4.9057,1590693339,N
69,2472616,-7.6116,-3.8620,4.8909,-0.6300,-0.2800,-0.1400,1001.8113,-7.5777,-3.8401,4.8993,1590693339,N
68,2467940,-7.5852,-3.8429,4.9316,-0.6300,-0.2800,-0.1400,1001.8110,-7.5740,-3.8426,4.9030,1590693339,N
69,2466325,-7.6116,-3.8046,4.9651,-0.4200,-0.2100,-0.2100,1001.8109,-7.5727,-3.8348,4.9110,1590693339,N
67,2466744,-7.5565,-3.8548,4.9699,-0.4900,-0.4200,-0.1400,1001.8110,-7.5632,-3.8404,4.9214,1590693339,N
68,2465427,-7.6618,-3.8142,4.9627,-0.7700,-0.9100,-0.2800,1001.8116,-7.5641,-3.8345,4.9245,1590693339,N
68,2459526,-7.5900,-3.7998,4.9795,-0.8400,-0.1400,-0.2100,1001.8118,-7.5629,-3.8299,4.9299,1590693339,N
68,2452746,-7.6044,-3.7184,4.9842,0.0700,-0.0700,0.0700,1001.8114,-7.5687,-3.8056,4.9398,1590693339,N
67,2452862,-7.5948,-3.7759,4.9795,0.0700,0.2800,-0.0700,1001.8105,-7.5706,-3.7973,4.9434,1590693339,N
68,2457186,-7.5852,-3.7807,4.9292,0.4900,0.2100,0.0700,1001.8096,-7.5749,-3.7914,4.9413,1590693340,N
68,2457866,-7.5996,-3.8070,4.9819,0.4900,0.2100,0.0700,1001.8088,-7.5738,-3.7883,4.9453,1590693340,N
68,2454946,-7.6211,-3.8142,4.9771,-0.1400,0.0700,0.0700,1001.8085,-7.5745,-3.7887,4.9441,1590693340,N
68,2455197,-7.6379,-3.7831,4.9842,0.0700,-0.2100,0.0700,1001.8087,-7.5760,-3.7819,4.9469,1590693340,N
69,2452221,-7.6307,-3.7878,4.9723,-0.1400,-0.3500,0.0700,1001.8087,-7.5767,-3.7793,4.9478,1590693340,N
68,2449654,-7.5948,-3.8668,4.9651,1.2600,-0.3500,0.4900,1001.8088,-7.5713,-3.7846,4.9521,1590693340,N
68,2443712,-7.6953,-3.9601,4.9364,-0.7700,-0.3500,-0.2100,1001.8095,-7.5699,-3.8122,4.9330,1590693340,N
68,2440819,-7.5494,-3.8189,4.9795,-0.5600,-0.2100,-0.2100,1001.8096,-7.5625,-3.8166,4.9408,1590693340,N
69,2443934,-7.6475,-3.8979,5.0177,-0.9100,-0.3500,-0.1400,1001.8096,-7.5568,-3.8273,4.9413,1590693340,N
69,2447041,-7.6068,-3.8501,4.9531,-1.2600,-0.4900,-0.4900,1001.8098,-7.5546,-3.8366,4.9375,1590693340,N
69,2443598,-7.6187,-3.8381,4.9460,-0.8400,-0.2800,-0.4900,1001.8099,-7.5559,-3.8396,4.9333,1590693341,N
69,2445519,-7.6235,-3.8237,4.9460,-0.9100,-0.9100,-0.5600,1001.8101,-7.5546,-3.8408,4.9342,1590693341,N
69,2451471,-7.6044,-3.7639,5.0441,-0.8400,-0.2100,-0.4900,1001.8095,-7.5520,-3.8273,4.9487,1590693341,N
69,2454823,-7.5805,-3.8836,4.9747,-1.0500,-0.2800,-0.6300,1001.8093,-7.5452,-3.8427,4.9471,1590693341,N
69,2461493,-7.5541,-3.7950,4.9986,-1.0500,-0.2100,-0.1400,1001.8081,-7.5438,-3.8375,4.9532,1590693341,N
69,2465025,-7.5924,-3.8764,4.9699,-0.4900,0.2100,-0.6300,1001.8066,-7.5425,-3.8462,4.9485,1590693341,N
70,2474483,-7.5326,-3.8477,5.0058,-0.4200,0.4900,-0.3500,1001.8053,-7.5383,-3.8481,4.9535,1590693341,N
70,2485544,-7.5924,-3.8620,5.0010,-0.3500,0.5600,-0.6300,1001.8044,-7.5382,-3.8500,4.9521,1590693341,N
70,2491053,-7.5494,-3.8788,4.9053,-0.3500,0.4200,-0.5600,1001.8036,-7.5407,-3.8605,4.9402,1590693341,N
70,2494731,-7.6546,-3.8931,4.9005,-0.3500,0.4900,-0.2800,1001.8031,-7.5524,-3.8633,4.9201,1590693341,N
70,2507567,-7.5972,-3.8596,4.9340,0.2100,-0.0700,-0.1400,1001.8024,-7.5540,-3.8595,4.9206,1590693342,N
70,2515679,-7.6259,-3.8955,4.9484,0.5600,-0.5600,0.0700,1001.8028,-7.5526,-3.8582,4.9238,1590693342,N
70,2510534,-7.6546,-3.8716,4.9675,1.2600,-0.5600,0.4900,1001.8022,-7.5553,-3.8451,4.9298,1590693342,N
70,2503530,-7.5924,-3.8955,4.8550,-0.2100,-0.0700,0.4900,1001.8018,-7.5633,-3.8522,4.9121,1590693342,N
71,2497198,-7.5637,-3.8285,4.9747,0.0700,-0.2100,0.3500,1001.8016,-7.5605,-3.8434,4.9231,1590693342,N
71,2498411,-7.6499,-3.8836,4.9412,-0.2800,-0.2100,0.3500,1001.8016,-7.5647,-3.8433,4.9167,1590693342,N
71,2498696,-7.5733,-3.8907,4.8885,-0.6300,-0.3500,-0.1400,1001.8016,-7.5627,-3.8558,4.9100,1590693342,N
71,2492863,-7.6044,-3.8309,4.9747,-0.1400,-0.2100,-0.1400,1001.8012,-7.5610,-3.8483,4.9186,1590693342,N
71,2490048,-7.6092,-3.8046,4.9053,-0.2800,-0.1400,-0.0700,1001.8007,-7.5677,-3.8403,4.9145,1590693342,N
71,2490570,-7.5852,-3.7998,4.9077,-0.4200,-0.2100,-0.1400,1001.8003,-7.5706,-3.8355,4.9137,1590693342,N
71,2488928,-7.6427,-3.8381,4.9244,-0.3500,-0.2100,0.0700,1001.7994,-7.5750,-3.8324,4.9094,1590693343,N
71,2484535,-7.6068,-3.7783,5.0393,1.1200,-0.1400,0.2100,1001.7995,-7.5703,-3.8107,4.9335,1590693343,N
71,2476776,-7.6331,-3.8668,4.9244,0.1400,-0.4200,0.1400,1001.8000,-7.5712,-3.8158,4.9282,1590693343,N
71,2474472,-7.6235,-3.7687,4.9579,0.1400,-0.4200,-0.2100,1001.8009,-7.5727,-3.8049,4.9344,1590693343,N
71,2477358,-7.6116,-3.8740,4.8957,0.1400,-0.3500,0.1400,1001.8018,-7.5735,-3.8148,4.9255,1590693343,N
71,2478202,-7.5685,-3.8166,4.9723,-0.4200,0.0700,-0.0700,1001.8021,-7.5697,-3.8156,4.9307,1590693343,N
71,2473346,-7.6307,-3.8094,4.8861,-0.3500,-0.2100,-0.1400,1001.8022,-7.5769,-3.8152,4.9198,1590693343,N
71,2468817,-7.6140,-3.8357,4.9795,-0.4200,-0.0700,-0.1400,1001.8024,-7.5733,-3.8168,4.9241,1590693343,N
71,2466172,-7.5972,-3.8740,4.9914,-0.4900,-0.2800,-0.1400,1001.8013,-7.5649,-3.8257,4.9302,1590693343,N
71,2462976,-7.5972,-3.8740,4.9364,-0.8400,-0.9100,-0.2800,1001.8007,-7.5588,-3.8381,4.9300,1590693343,N
71,2455718,-7.5781,-3.7256,4.9603,-1.2600,-0.2100,-0.4900,1001.7997,-7.5622,-3.8251,4.9348,1590693344,N
70,2446564,-7.6594,-3.7424,4.9268,-0.2100,0.0700,-0.4900,1001.7987,-7.5737,-3.8094,4.9292,1590693344,N
71,2445490,-7.6116,-3.7878,4.9819,-0.3500,0.2100,-0.3500,1001.7990,-7.5736,-3.8048,4.9330,1590693344,N
70,2447035,-7.6068,-3.7232,4.9938,0.4200,0.0700,0.1400,1001.7991,-7.5772,-3.7839,4.9436,1590693344,N
71,2447577,-7.6211,-3.8405,4.9842,0.4200,-0.2100,-0.0700,1001.7994,-7.5725,-3.7883,4.9474,1590693344,N
70,2444041,-7.6283,-3.7998,4.9579,0.1400,-0.2100,0.0700,1001.7988,-7.5746,-3.7858,4.9460,1590693344,N
71,2443474,-7.6211,-3.7711,4.9292,0.0700,-0.2800,0.0700,1001.7982,-7.5794,-3.7808,4.9425,1590693344,N
70,2440482,-7.6235,-3.8285,4.9866,0.1400,-0.2100,0.0700,1001.7975,-7.5759,-3.7838,4.9456,1590693344,N
71,2436963,-7.5996,-3.8907,4.9962,0.4900,-0.1400,0.3500,1001.7967,-7.5681,-3.7945,4.9493,1590693344,N
70,2430207,-7.6259,-3.9625,4.9866,-1.0500,0.0700,-0.4200,1001.7961,-7.5590,-3.8246,4.9400,1590693344,N
71,2425136,-7.6714,-3.7854,4.9723,-0.4900,-0.1400,-0.1400,1001.7953,-7.5669,-3.8131,4.9369,1590693345,N
71,2428401,-7.6666,-3.8764,4.9101,-1.1900,-0.2800,-0.3500,1001.7949,-7.5709,-3.8263,4.9205,1590693345,N
71,2434267,-7.5948,-3.8142,4.9747,-1.1200,-0.2100,-0.2800,1001.7952,-7.5678,-3.8273,4.9245,1590693345,N
70,2433455,-7.6379,-3.7807,4.9412,-0.2800,-0.2100,-0.1400,1001.7958,-7.5734,-3.8168,4.9240,1590693345,N
71,2433270,-7.5996,-3.8118,4.9603,-0.2800,0.0700,-0.2800,1001.7968,-7.5722,-3.8158,4.9266,1590693345,N
71,2436567,-7.6499,-3.7926,4.9436,-0.7700,-0.5600,-0.4200,1001.7979,-7.5742,-3.8131,4.9257,1590693345,N
71,2436788,-7.5876,-3.8381,4.9819,-0.7000,-0.4900,-0.2800,1001.7985,-7.5661,-3.8196,4.9330,1590693345,N
70,2440668,-7.5852,-3.8046,4.9603,0.3500,0.1400,-0.1400,1001.7991,-7.5662,-3.8142,4.9371,1590693345,N
71,2444164,-7.6044,-3.8955,4.9747,-0.6300,-0.0700,-0.4900,1001.7994,-7.5592,-3.8299,4.9356,1590693345,N
71,2451582,-7.5781,-3.8572,5.0441,-0.6300,-0.1400,-0.3500,1001.8000,-7.5488,-3.8341,4.9483,1590693345,N
71,2462374,-7.5733,-3.8477,4.9938,-0.0700,0.2100,-0.4900,1001.8003,-7.5452,-3.8363,4.9521,1590693346,N
71,2475551,-7.5374,-3.8788,4.9460,-0.6300,0.3500,-0.6300,1001.8011,-7.5416,-3.8503,4.9467,1590693346,N
70,2484560,-7.5972,-3.8620,4.8957,-0.7000,0.0700,-0.4200,1001.8026,-7.5482,-3.8564,4.9319,1590693346,N
71,2496597,-7.6235,-3.9171,4.9125,-0.4900,0.3500,-0.6300,1001.8035,-7.5512,-3.8684,4.9179,1590693346,N
70,2511848,-7.5924,-3.8596,4.8861,-0.2800,0.3500,-0.4200,1001.8039,-7.5574,-3.8690,4.9078,1590693346,N
71,2513093,-7.6259,-3.9290,4.9484,0.2800,0.1400,0.2800,1001.8038,-7.5581,-3.8702,4.9058,1590693346,N
70,2509030,-7.5829,-3.9625,4.9436,0.0700,0.1400,0.0700,1001.8030,-7.5526,-3.8818,4.9051,1590693346,N
71,2498433,-7.5709,-3.8453,4.9579,0.2100,-0.1400,0.2800,1001.8027,-7.5528,-3.8700,4.9142,1590693346,N
70,2498600,-7.5996,-3.8166,4.9651,-0.5600,-0.1400,-0.1400,1001.8029,-7.5549,-3.8594,4.9192,1590693346,N
71,2501166,-7.6307,-3.8405,4.9316,-0.5600,-0.2100,0.2100,1001.8035,-7.5616,-3.8524,4.9145,1590693346,N
70,2493964,-7.6211,-3.8501,4.9268,-0.5600,-0.2800,0.1400,1001.8036,-7.5652,-3.8497,4.9110,1590693347,N
71,2491145,-7.6499,-3.8094,4.9412,0.0700,-0.2800,0.1400,1001.8033,-7.5713,-3.8358,4.9124,1590693347,N
71,2490443,-7.6092,-3.8740,4.9627,-0.1400,-0.0700,0.1400,1001.8021,-7.5686,-3.8378,4.9150,1590693347,N
71,2486308,-7.5757,-3.8501,4.9412,-0.2800,-0.1400,-0.1400,1001.8016,-7.5653,-3.8406,4.9180,1590693347,N
71,2481279,-7.6068,-3.7974,4.9914,1.2600,-0.2100,0.3500,1001.8008,-7.5653,-3.8209,4.9333,1590693347,N
70,2472649,-7.5709,-3.8979,4.9268,-0.0700,-0.4900,-0.0700,1001.7998,-7.5588,-3.8352,4.9321,1590693347,N
71,2467239,-7.6020,-3.8429,4.9723,-0.1400,-0.0700,0.1400,1001.7991,-7.5592,-3.8321,4.9340,1590693347,N
70,2469984,-7.5781,-3.8596,4.9699,-0.3500,-0.4200,-0.0700,1001.7988,-7.5541,-3.8366,4.9383,1590693347,N
71,2471074,-7.5900,-3.8261,4.9555,-0.4200,-0.2100,-0.1400,1001.7985,-7.5549,-3.8349,4.9385,1590693347,N
70,2466839,-7.6451,-3.8429,4.9292,-0.3500,-0.1400,-0.1400,1001.7982,-7.5612,-3.8337,4.9296,1590693347,N
70,2465114,-7.5900,-3.8764,4.9460,-0.2800,-0.2100,-0.1400,1001.7975,-7.5582,-3.8408,4.9287,1590693348,N
70,2463881,-7.5996,-3.8548,4.9747,-0.4200,-0.2800,-0.0700,1001.7977,-7.5557,-3.8414,4.9321,1590693348,N
70,2461916,-7.6116,-3.7926,4.8909,-0.2800,-0.7000,-0.0700,1001.7979,-7.5626,-3.8339,4.9272,1590693348,N
70,2457314,-7.5924,-3.7328,4.9412,-0.4200,-0.1400,-0.2100,1001.7984,-7.5687,-3.8176,4.9307,1590693348,N
70,2450689,-7.6235,-3.8142,4.9388,0.2100,-0.1400,0.1400,1001.7985,-7.5725,-3.8118,4.9293,1590693348,N
