0,2599832,-2.5866,-2.8259,11.7703,-0.7700,-6.5800,29.4700,1001.2571,-2.0493,-2.2389,9.3251,1590698032,N
0,2610764,-2.6058,-4.2066,7.5422,-22.8900,9.4500,-7.5600,1001.2576,-2.3926,-2.9478,9.0419,1590698032,N
0,2608987,-2.0530,-3.7926,9.2842,-3.2200,10.0800,-9.9400,1001.2578,-2.3760,-3.1798,8.9674,1590698032,N
0,294128,-3.6945,-3.8812,8.5256,-10.4300,16.4500,-14.0000,1001.2568,-2.7348,-3.5210,8.7346,1590698032,N
0,2147483647,-3.6945,-3.8979,7.8796,1.4700,9.7300,3.8500,1001.2578,-3.0265,-3.6484,8.5849,1590698033,N
0,2147483647,-3.1035,-2.9192,9.5306,30.8000,-1.6800,13.5100,1001.2586,-2.9538,-3.1690,8.7979,1590698033,N
0,1335381,-2.7254,-2.3880,8.8367,19.4600,-10.9200,-7.0000,1001.2591,-2.7639,-2.8432,8.9692,1590698033,N
0,1364377,-3.2734,-4.2927,8.5113,55.0200,-34.0200,-22.1900,1001.2590,-2.3806,-2.5892,9.1542,1590698033,N
0,1992567,-2.8068,-2.0626,9.6431,-14.2100,1.8200,-5.8100,1001.2585,-2.4884,-2.5947,9.1239,1590698033,N
0,2094809,-2.9432,-2.5747,8.4467,-14.8400,2.3800,0.0700,1001.2588,-2.6747,-2.7523,9.0245,1590698033,N
0,2099629,-2.0267,-1.9310,10.0762,-22.3300,-22.7500,-14.9800,1001.2594,-2.3853,-2.6966,9.1219,1590698033,N
0,2099113,-2.4359,-2.8738,9.4110,-13.8600,-2.1000,-27.8600,1001.2602,-2.3395,-2.8863,9.0756,1590698033,N
0,2107391,-2.9288,-2.8427,8.1165,23.8700,42.9800,18.2000,1001.2600,-2.8168,-2.8551,8.9490,1590698033,N
0,2113035,-2.3521,-4.1946,9.1789,-19.1800,49.7000,51.8000,1001.2598,-3.2941,-3.2417,8.6493,1590698033,N
0,2114410,-4.6851,-3.4122,8.8032,9.3100,-2.4500,15.9600,1001.2590,-3.4990,-3.1120,8.6164,1590698034,N
0,2141997,-3.2016,-2.5388,9.3200,-16.3100,-31.6400,9.6600,1001.2598,-3.2645,-2.9878,8.7514,1590698034,N
0,2151788,-3.3619,-2.7254,8.8750,-26.3200,-33.8800,-25.0600,1001.2627,-3.0272,-3.1034,8.7963,1590698034,N
0,2166174,-4.2808,-2.4622,8.9396,-5.3900,-5.1100,-37.9400,1001.2665,-3.1034,-3.0970,8.7720,1590698034,N
0,2160221,-1.9478,-5.0943,8.2409,-13.2300,17.2200,16.1000,1001.2714,-3.1160,-3.5624,8.5890,1590698034,N
0,2147164,-2.2564,-3.7065,8.7841,-18.9000,-7.2100,6.6500,1001.2742,-2.9514,-3.6942,8.5914,1590698034,N
0,2153005,-3.0221,-4.5942,8.3270,-13.5100,-14.9100,15.8200,1001.2750,-2.9342,-3.8498,8.5288,1590698034,N
0,2162361,-3.6514,-3.2447,9.6550,0.2800,2.3100,1.3300,1001.2769,-3.0080,-3.7476,8.5486,1590698034,N
0,2169036,-2.2804,-2.9432,8.5113,7.9100,7.7000,-18.0600,1001.2775,-2.8689,-3.6485,8.6388,1590698034,N
0,2167586,-2.2014,-7.2383,7.6331,-21.6300,14.9100,4.7600,1001.2772,-2.9399,-4.3953,8.2589,1590698034,N
0,2151700,-2.8786,-3.8644,8.9348,-23.3100,-0.7000,5.1800,1001.2758,-2.9677,-4.4169,8.2374,1590698035,N
0,2123843,-2.0267,-5.1374,7.6881,-19.0400,-11.9000,10.2200,1001.2729,-2.7802,-4.6337,8.1835,1590698035,N
0,2122710,-2.5962,-5.4724,6.9464,-21.2800,-18.6900,-15.0500,1001.2709,-2.6414,-4.9920,8.0171,1590698035,N
0,2125531,-3.0365,-3.9817,10.3370,0.6300,-27.3700,-40.1800,1001.2698,-2.2840,-4.8232,8.2274,1590698035,N
0,2134988,0.8806,-4.8024,9.3392,106.5400,-30.5200,-30.4500,1001.2687,-1.2025,-3.7851,8.9665,1590698035,N
0,2135348,-1.4740,-6.5755,8.1691,-11.9000,0.4200,-24.8500,1001.2675,-1.2121,-4.4950,8.6311,1590698035,N
0,2140050,-0.3326,-5.2570,7.8006,-16.8700,-21.3500,-18.2700,1001.2664,-0.8523,-4.6120,8.6124,1590698035,N
0,2143212,2.6871,-5.8409,5.6279,-64.4700,-77.0700,-65.1700,1001.2646,0.4260,-1.3926,9.6979,1590698035,N
0,2148360,2.0195,-5.7978,6.5970,-25.7600,-81.6900,11.4100,1001.2633,0.8208,-7.9743,5.6486,1590698035,N
0,2144944,3.3284,-5.9222,10.1456,-105.6300,-85.6100,-25.6900,1001.2621,1.5751,-8.1042,5.2925,1590698035,N
0,2139857,1.6295,-7.6259,5.9174,1.1200,-7.7700,9.3100,1001.2612,1.5557,-8.1070,5.2940,1590698036,N
0,2130931,1.5314,-7.1474,6.4630,78.1900,0.9800,41.5800,1001.2607,1.3561,-7.8531,5.7149,1590698036,N
0,2123112,1.2419,-8.8008,7.7551,12.1800,10.7800,81.4800,1001.2600,1.4449,-2.0479,9.4810,1590698036,N
0,2122890,-0.1316,-3.8309,6.8554,143.9900,40.6700,89.7400,1001.2593,0.9465,-0.7003,9.7357,1590698036,N
0,2120202,4.5703,-5.8002,7.9179,-93.6600,-64.7500,28.5600,1001.2593,1.5965,-1.2851,9.5901,1590698036,N
0,2115660,3.8453,-6.7238,7.5733,11.7600,7.6300,-67.4100,1001.2597,1.2680,-7.6249,6.0351,1590698036,N
0,2113399,1.6128,-5.7021,6.6688,-55.1600,-7.6300,-70.0700,1001.2601,1.8209,-7.1764,6.4307,1590698036,N
0,2114094,-0.2752,-6.1065,5.4509,-51.6600,-10.6400,-67.3400,1001.2610,2.0080,-7.1075,6.4515,1590698036,N
0,2115723,0.9380,-6.3721,1.4907,97.5800,-58.4500,-42.4200,1001.2617,2.6202,-6.7813,6.5817,1590698036,N
0,2103546,-0.0718,-18.5420,10.2867,49.7000,54.3900,58.0300,1001.2621,1.7464,-6.8247,6.8223,1590698036,N
0,2099578,-0.4451,-7.7169,7.4704,49.2800,74.3400,83.6500,1001.2626,0.5173,-7.4391,6.3688,1590698036,N
0,2105280,1.5123,-3.1418,6.3841,23.8000,24.1500,73.1500,1001.2631,0.4799,-0.7182,9.7685,1590698037,N
0,2114311,2.1846,-2.4359,9.4421,106.2600,2.2400,73.7100,1001.2629,0.4603,-6.5678,7.2679,1590698037,N
0,2114589,1.5027,-5.0417,9.1262,29.2600,0.0700,23.7300,1001.2617,0.5846,-6.1299,7.6323,1590698037,N
0,2106198,3.6802,-5.0776,8.7218,-67.9000,-27.7200,-17.2200,1001.2610,1.3732,-5.7180,7.8479,1590698037,N
0,2109125,2.2325,-6.0562,7.0014,-100.5200,37.5200,-105.0700,1001.2607,1.7602,-5.4854,7.9361,1590698037,N
0,2104293,-0.5360,-6.7119,7.2909,-73.2900,2.9400,-48.7200,1001.2598,1.5236,-5.8241,7.7413,1590698037,N
0,2101192,0.6772,-6.0706,4.3143,-76.1600,-33.8100,-63.4200,1001.2589,2.0578,-6.5540,6.9986,1590698037,N
0,2099837,-0.5168,-10.6648,5.1087,-2.3800,-33.4600,-16.1000,1001.2574,2.0512,-6.8350,6.7265,1590698037,N
0,2100018,-1.2969,-10.0259,7.0205,54.8800,-10.3600,49.7000,1001.2573,1.4653,-6.8488,6.8642,1590698037,N
0,2099248,0.3661,-7.0181,6.8842,36.8900,15.7500,29.7500,1001.2571,1.0184,-6.6871,7.1004,1590698038,N
0,2097497,0.9835,-6.4056,7.6666,119.5600,33.3200,63.8400,1001.2571,0.5407,-6.2366,7.5487,1590698038,N
0,2093303,2.1272,-6.9966,9.0497,61.6000,18.2000,81.7600,1001.2572,0.3483,-0.3007,9.7958,1590698038,N
0,2088905,1.9406,-5.5155,8.7506,-8.6100,-16.6600,-0.4200,1001.2580,0.5955,-6.7815,7.0588,1590698038,N
0,2081808,2.4072,-6.0538,7.2885,-53.6900,-11.9000,-25.8300,1001.2588,1.1435,-6.4717,7.2787,1590698038,N
0,2076266,2.6465,-6.2931,6.2189,-70.9800,-7.0000,-82.7400,1001.2591,1.8935,-6.4070,7.1788,1590698038,N
0,2077972,-1.1390,-6.5850,5.4126,-95.5500,1.1200,-58.6600,1001.2591,1.8516,-6.7696,6.8494,1590698038,N
0,2083200,-2.4861,-10.0092,7.7719,1.1200,-21.9100,-9.0300,1001.2589,1.5885,-6.8233,6.8622,1590698038,N
0,2086503,0.1196,-7.3101,5.5035,55.5800,17.6400,25.6200,1001.2592,1.0646,-6.4857,7.2783,1590698038,N
0,2085601,-0.3876,-6.7765,7.5206,78.6100,14.3500,37.1700,1001.2589,0.5151,-5.9005,7.8159,1590698038,N
0,2086030,-0.5432,-4.5942,7.4728,98.0000,13.3000,52.4300,1001.2587,0.0964,-0.3998,9.7980,1590698039,N
0,2084011,1.5003,-3.8070,9.0162,83.8600,23.5200,54.3200,1001.2585,0.0802,0.5787,9.7892,1590698039,N
0,2078265,1.1031,-5.3791,9.8656,-30.1000,-0.6300,34.3700,1001.2584,0.1193,-1.0094,9.7538,1590698039,N
0,2068581,3.4313,-6.4463,8.0806,-47.9500,-21.4200,-58.4500,1001.2583,0.7459,-5.6630,7.9715,1590698039,N
0,2068770,2.1631,-5.7500,7.2550,-148.8200,-4.1300,-95.2000,1001.2584,1.4865,-6.0664,7.5604,1590698039,N
0,2075933,-2.1296,-6.0993,6.7334,-55.2300,-8.8200,-59.7100,1001.2578,1.0621,-5.9630,7.7127,1590698039,N
0,2081918,-3.1513,-10.0044,6.2764,8.2600,41.8600,29.1900,1001.2573,0.1001,-4.5357,8.6941,1590698039,N
0,2085990,0.6939,-6.9296,7.1689,120.6800,33.8100,64.0500,1001.2568,-0.3002,-1.9283,9.6105,1590698039,N
0,2085161,-0.4331,-5.4556,8.2959,102.9000,17.2200,47.3900,1001.2567,-0.4746,-6.4733,7.3513,1590698039,N
0,2080004,-0.7442,-4.7330,7.0540,75.6000,8.6800,53.9000,1001.2564,-0.7838,-4.5969,8.6269,1590698039,N
0,2075245,-0.4403,-3.8237,11.2917,10.7100,57.3300,76.0900,1001.2563,-1.3835,-4.3428,8.6831,1590698040,N
0,2033974,-0.9571,-2.1559,9.2578,-47.8100,-10.2900,9.6600,1001.2563,-1.3256,-4.0925,8.8127,1590698040,N
0,2029740,-0.4857,-4.9675,7.9155,-63.7000,0.9800,-33.6000,1001.2561,-1.1261,-5.0737,8.3162,1590698040,N
0,2035453,1.3256,-6.6688,8.7817,-38.2900,17.0800,-48.6500,1001.2557,-0.7731,-6.5129,7.2908,1590698040,N
0,2042645,-1.5290,-5.3839,7.3723,-38.2200,27.3000,-60.6900,1001.2550,-0.7294,-7.5999,6.1546,1590698040,N
0,2052681,-0.0263,-6.7765,8.3270,17.5700,3.6400,-52.0100,1001.2548,-0.7237,-1.1960,9.7065,1590698040,N
0,2065726,-0.3709,-6.0108,7.6355,30.5900,-8.2600,-57.4000,1001.2556,-0.5089,-1.5461,9.6706,1590698040,N
0,2077881,0.7011,-6.2907,8.7410,71.0500,-33.8800,-54.1100,1001.2570,0.0184,-2.5010,9.4824,1590698040,N
0,2082734,-1.0696,-6.2931,8.7338,13.6500,-11.9000,-1.8200,1001.2584,0.0107,-2.4583,9.4935,1590698040,N
0,2083656,-0.8710,-5.3743,6.0945,-76.6500,36.0500,68.1100,1001.2597,-0.5029,-1.1140,9.7302,1590698040,N
0,2089283,-0.3326,-6.8937,6.2716,-120.1200,-8.0500,143.1500,1001.2609,-0.9572,-6.2052,7.5332,1590698041,N
0,2095905,-1.7324,-3.4146,5.7811,8.8900,-40.8800,105.8400,1001.2618,-1.2599,-5.2048,8.2154,1590698041,N
0,2110836,1.2036,-4.8215,15.2949,41.9300,-27.7900,0.7000,1001.2613,-0.6399,-4.1532,8.8607,1590698041,N
0,2129240,0.4929,-4.8598,9.3488,56.2100,7.3500,-50.0500,1001.2610,-0.2444,-3.3810,9.2021,1590698041,N
0,2158912,-0.6173,-3.0532,6.2477,145.4600,-56.7000,-90.4400,1001.2612,0.4398,1.2292,9.7194,1590698041,N
0,2167645,4.0199,-0.4331,10.5165,113.6800,-41.3000,-119.2800,1001.2601,1.2349,-2.4548,9.4138,1590698041,N
0,2116060,-2.5747,2.5436,5.2929,247.3800,-26.0400,-157.5700,1001.2598,4.2647,-2.1628,8.5618,1590698041,N
0,2095388,0.1723,-9.6000,12.4140,-215.8800,-27.5100,-65.3800,1001.2601,1.3754,-1.5793,9.5804,1590698041,N
0,2104164,2.9288,-2.9145,9.5665,-170.3100,6.6500,87.3600,1001.2596,1.8265,-3.5030,8.9757,1590698041,N
0,2100271,1.1318,-5.9270,6.7525,-163.3100,-35.8400,144.0600,1001.2578,1.6407,-6.3583,7.2836,1590698041,N
0,2100544,3.3858,-4.7091,8.4347,31.0100,-86.3100,114.3800,1001.2562,1.8586,-6.9571,6.6569,1590698042,N
0,2107966,3.4457,-2.5675,11.2678,91.4900,-0.1400,-35.4900,1001.2543,2.3360,-5.2599,7.9402,1590698042,N
0,2105843,1.5721,-1.9358,8.2887,145.0400,4.6900,-72.3800,1001.2533,2.3419,-3.0623,9.0171,1590698042,N
0,2092507,3.3619,-3.3619,10.3346,-53.3400,-11.2700,-95.6200,1001.2534,2.8076,-3.1126,8.8657,1590698042,N
0,2096564,2.1966,-0.0718,11.5262,-46.2700,11.4800,-123.7600,1001.2531,3.2424,-2.6417,8.8701,1590698042,N
0,2105610,2.0554,-8.2600,10.1862,-53.4100,14.0700,10.5700,1001.2530,3.1426,-3.4232,8.6358,1590698042,N
0,2109945,1.4189,-3.0341,7.9825,-221.4800,-33.6000,45.7800,1001.2520,3.5367,-5.4162,7.3707,1590698042,N
0,2103040,5.0034,-9.3870,1.6726,-80.1500,-139.4400,66.3600,1001.2498,4.4319,-7.2360,4.9162,1590698042,N
0,2100987,7.8796,-5.9725,10.1743,-112.0700,-105.8400,-35.7000,1001.2480,5.1895,-7.3149,3.9663,1590698042,N
0,2093775,2.1488,-8.3438,4.9077,6.7200,-69.3700,6.0200,1001.2461,4.8340,-7.5546,3.9662,1590698042,N
0,2084054,4.8311,-5.5394,9.7196,41.7900,60.9000,-15.6100,1001.2463,4.7355,-6.9513,5.0423,1590698043,N
0,2086722,3.9218,-7.2885,4.9388,-39.6900,121.9400,-66.5700,1001.2462,4.3982,-6.8359,5.4860,1590698043,N
0,2092050,6.5946,-6.2166,3.6347,-81.2000,-14.0000,45.9900,1001.2473,4.5264,-7.4597,4.4761,1590698043,N
0,2088665,3.5797,-6.6497,2.7039,-31.1500,-57.8900,19.7400,1001.2477,4.5397,-7.8301,3.7751,1590698043,N
0,2081578,7.0397,-4.2281,5.6566,20.1600,-100.3800,-19.2500,1001.2479,5.7514,-6.8669,3.9922,1590698043,N
0,2073150,2.8259,-7.8652,9.5641,-14.8400,17.4300,0.3500,1001.2476,5.2569,-7.0220,4.3849,1590698043,N
0,2073721,7.5350,-3.2183,9.0808,6.0900,63.4900,-32.6900,1001.2469,5.3983,-6.3134,5.2125,1590698043,N
0,2076691,3.0843,-10.0738,-0.2560,-33.4600,125.9300,-22.4000,1001.2468,4.9596,-7.1739,4.4841,1590698043,N
0,2075986,8.4897,-7.0708,3.9864,-36.8200,-34.5800,46.8300,1001.2454,4.9384,-7.5363,3.8712,1590698043,N
0,2069175,3.2160,-5.2140,3.1155,-42.9100,-77.3500,42.0000,1001.2448,4.7760,-7.9435,3.2034,1590698043,N
0,2062194,6.0467,-5.2881,2.7757,-10.5700,-90.4400,-14.6300,1001.2451,5.5439,-7.5908,2.7956,1590698044,N
0,2052726,0.7370,-7.7551,9.8489,47.1100,16.1700,33.4600,1001.2452,4.8706,-7.6668,3.6969,1590698044,N
0,2051552,3.4672,-7.0134,6.8052,55.4400,62.3000,8.8200,1001.2452,4.3714,-7.3426,4.8111,1590698044,N
0,2059329,3.2064,-4.5631,7.0181,109.4100,99.9600,-10.5700,1001.2451,3.9256,-6.1723,6.5317,1590698044,N
0,2067025,5.2642,-9.9685,5.2642,-28.8400,15.4700,0.9100,1001.2454,3.8981,-6.5674,6.1518,1590698044,N
0,2072348,4.2568,-1.0983,9.7340,43.1900,-5.2500,12.3200,1001.2456,4.2090,-5.2261,7.1514,1590698044,N
0,2066303,5.2211,-7.8652,5.4820,-54.7400,-55.7900,-29.2600,1001.2473,4.8435,-5.7591,6.2884,1590698044,N
0,2057759,2.2038,-5.0034,7.9155,-74.4100,-49.3500,-14.6300,1001.2491,4.6923,-6.1620,6.0152,1590698044,N
0,2052039,1.2969,-8.9180,7.2574,24.1500,-33.6000,-22.6100,1001.2499,4.5960,-6.1313,6.1200,1590698044,N
0,2050558,4.2544,-7.0588,7.0612,39.1300,45.7800,34.1600,1001.2512,4.0435,-6.0217,6.5999,1590698044,N
0,2047263,2.4933,-5.2929,8.1882,-18.1300,68.4600,-18.5500,1001.2533,3.4378,-5.7618,7.1522,1590698045,N
0,2052898,5.1111,-9.5665,1.7922,38.6400,62.0900,-38.9900,1001.2549,3.5639,-5.6484,7.1809,1590698045,N
0,2058950,5.5848,-5.4915,7.1067,-16.0300,-29.5400,-9.8700,1001.2554,4.1172,-5.6847,6.8486,1590698045,N
0,2057839,5.5490,-8.1188,5.0560,-34.6500,-82.6000,2.1700,1001.2551,4.7358,-6.2401,5.8994,1590698045,N
0,2049863,2.7876,-4.5440,8.4156,64.8200,-42.0000,28.2800,1001.2548,4.4698,-5.8051,6.5186,1590698045,N
0,2045181,4.7139,-4.9005,8.3366,10.5700,28.8400,-26.4600,1001.2545,4.4140,-5.3051,6.9673,1590698045,N
0,2046668,3.3930,-6.9583,7.2383,20.7200,85.8200,-46.4100,1001.2546,3.8249,-5.0100,7.5127,1590698045,N
0,2047241,5.6351,-8.4538,2.1320,21.2800,38.6400,-37.3800,1001.2545,4.4052,-5.5115,6.8109,1590698045,N
0,2046996,4.5344,-6.8578,6.6401,-34.2300,-27.8600,19.5300,1001.2538,4.4497,-6.0135,6.3410,1590698045,N
0,2048269,5.1326,-4.6516,7.3962,-16.8000,-52.3600,21.0700,1001.2534,4.7593,-5.9705,6.1540,1590698045,N
0,2046081,5.1685,-5.2068,7.8891,46.7600,0.8400,10.9200,1001.2540,4.6920,-5.5062,6.6210,1590698046,N
0,2041241,3.2806,-2.3378,7.6283,26.5300,16.5200,-28.8400,1001.2543,4.6613,-4.8313,7.1485,1590698046,N
0,2040173,5.0297,-7.5135,5.8002,-14.8400,46.0600,-29.6800,1001.2545,4.5915,-5.1451,6.9726,1590698046,N
0,2039198,5.0967,-5.2499,5.0082,-7.4200,-14.0700,12.4600,1001.2543,4.8498,-5.4237,6.5752,1590698046,N
0,2039338,4.1085,-6.0730,6.9033,9.9400,-18.4800,15.8200,1001.2540,4.7013,-5.5641,6.5658,1590698046,N
0,2038333,5.2857,-4.9077,7.4943,-6.4400,-15.7500,-1.4700,1001.2539,4.8686,-5.4248,6.5604,1590698046,N
0,2036608,4.4315,-6.2548,6.5994,2.7300,1.7500,6.3000,1001.2549,4.7146,-5.5655,6.5550,1590698046,N
0,2036293,5.0393,-6.1352,6.0921,0.6300,-2.7300,2.0300,1001.2558,4.7686,-5.6675,6.4273,1590698046,N
0,2038793,4.3286,-6.4463,6.9918,6.5100,2.1000,32.0600,1001.2559,4.4548,-5.8621,6.4778,1590698046,N
0,2039458,3.9003,-5.6303,7.4776,34.5100,23.8700,38.5000,1001.2560,3.9943,-5.7218,6.8903,1590698046,N
0,2038323,2.1511,-6.7837,6.1591,37.3800,16.6600,20.1600,1001.2556,3.4516,-5.8225,7.0961,1590698047,N
0,2034888,2.6656,-5.4915,8.7242,21.4900,25.1300,59.4300,1001.2555,2.8561,-5.7889,7.3825,1590698047,N
0,2033681,2.7876,-4.6684,7.8509,28.8400,33.8800,74.6900,1001.2547,2.3608,-5.6825,7.6359,1590698047,N
0,2031535,1.1031,-4.3071,9.2100,56.7700,48.0900,55.4400,1001.2536,1.6106,-5.1666,8.1782,1590698047,N
0,2032746,1.2203,-3.3811,7.0277,24.1500,28.4900,36.8900,1001.2523,1.2700,-4.9441,8.3733,1590698047,N
0,2033561,2.5579,-5.5131,9.3894,-67.7600,-18.5500,-6.8600,1001.2507,1.5554,-5.5570,7.9291,1590698047,N
0,2033495,2.9575,-5.9198,8.6764,-23.5900,-17.2900,-48.6500,1001.2489,2.0060,-5.4457,7.9051,1590698047,N
80,2034879,2.3019,-3.4074,7.0971,-7.8400,-54.1100,-73.0100,1001.2474,2.7816,-5.2031,7.8333,1590698047,N
80,2032056,-0.8088,-6.8459,8.7003,-86.1700,-53.9000,-57.5400,1001.2455,3.0689,-5.9212,7.1897,1590698047,N
80,2032425,1.8066,-5.4796,7.8987,26.9500,-9.9400,-0.4900,1001.2448,2.8587,-5.7144,7.4394,1590698047,N
81,2034855,-0.1005,-6.9631,8.5280,58.5900,20.4400,33.6000,1001.2449,2.1920,-5.4368,7.8617,1590698048,N
80,2041705,1.1414,-4.5583,9.1956,46.8300,37.5200,54.7400,1001.2454,1.5257,-5.0171,8.2868,1590698048,N
80,2047151,0.3350,-2.9097,7.6690,101.4300,81.6900,45.7100,1001.2448,0.5520,-3.0985,9.2879,1590698048,N
81,2048351,4.6038,-5.8193,9.4588,-35.4900,33.3200,90.9300,1001.2447,0.4251,-4.3089,8.7990,1590698048,N
80,2036212,5.7523,-6.7310,8.6907,-62.0200,-52.8500,-46.4800,1001.2449,1.4286,-5.3525,8.0920,1590698048,N
80,2040105,2.4096,-4.3765,5.8122,-26.5300,-45.2900,-45.5000,1001.2450,2.1167,-5.5851,7.7779,1590698048,N
80,2037773,-0.9763,-3.7902,9.2148,4.8300,-79.4500,-45.2200,1001.2449,2.1119,-5.7290,7.6739,1590698048,N
80,2034987,1.3639,-4.3502,12.0239,42.8400,-14.9100,-1.8200,1001.2439,2.1034,-5.2342,8.0218,1590698048,N
80,2036974,0.7418,-4.2185,11.1625,27.7200,33.9500,-17.2200,1001.2439,1.7391,-4.4913,8.5425,1590698048,N
80,2053734,0.4379,-2.2684,8.5783,65.3100,73.6400,34.0200,1001.2437,0.8219,-3.0435,9.2861,1590698048,N
80,2067207,3.7256,-1.7396,9.9829,33.2500,56.8400,-18.2000,1001.2430,0.5238,-1.7302,9.6386,1590698049,N
81,2066722,4.6540,-5.3504,9.3679,4.9000,77.9100,-40.1100,1001.2412,0.1825,-1.3520,9.7113,1590698049,N
81,2058361,5.3073,-5.4365,12.5408,-124.8800,-38.1500,-3.6400,1001.2395,1.2584,-3.3106,9.1448,1590698049,N
81,2058827,6.0323,-3.3523,5.3743,-117.0400,-57.8200,-34.3000,1001.2382,2.7561,-4.8724,8.0520,1590698049,N
81,2063428,1.4716,-5.0824,9.0281,-78.3300,-69.0200,-23.7300,1001.2366,3.1148,-5.5816,7.4374,1590698049,N
81,2059956,1.4931,-4.1444,4.6636,-9.1700,-59.5700,-20.6500,1001.2349,3.5209,-5.8304,7.0555,1590698049,N
81,2060819,-2.1751,-11.5262,13.8903,23.4500,26.5300,32.0600,1001.2342,2.6249,-5.8091,7.4522,1590698049,N
81,2067726,1.3878,-2.5244,9.6000,54.7400,42.7700,35.1400,1001.2340,1.9740,-4.7200,8.3663,1590698049,N
81,2076076,3.5844,-4.0965,8.1978,82.6700,85.2600,-12.5300,1001.2350,1.5359,-3.3667,9.0817,1590698049,N
81,2077810,5.4843,-7.1258,11.3181,18.1300,62.2300,21.7700,1001.2351,1.1412,-3.0079,9.2639,1590698049,N
81,2079638,4.7378,-3.1992,7.3220,-170.3800,-72.6600,14.0000,1001.2354,2.7041,-5.0731,7.9449,1590698050,N
81,2076587,3.9290,-3.5940,8.5902,-109.6200,-78.6100,-72.8700,1001.2352,3.9116,-5.4632,7.1431,1590698050,N
81,2069654,2.2181,-7.0875,5.1924,-11.6900,-121.3800,11.2000,1001.2344,4.2754,-6.2281,6.2531,1590698050,N
81,2063165,-1.3783,-7.3747,16.2856,97.7900,-39.0600,44.1000,1001.2339,3.6543,-5.9216,6.9102,1590698050,N
81,2072615,1.3424,-3.9242,8.6429,116.1300,59.7800,14.2800,1001.2340,2.7628,-4.7443,8.1258,1590698050,N
82,2082645,2.8283,-5.7476,8.5950,81.1300,73.6400,17.3600,1001.2349,2.0975,-3.9224,8.7399,1590698050,N
82,2086477,1.7922,-4.2616,10.1839,155.0500,104.5800,45.9900,1001.2346,0.8161,-1.6586,9.6309,1590698050,N
82,2090488,1.7276,-5.4437,9.5354,-65.1000,-7.0700,48.3000,1001.2344,0.9973,-3.0867,9.2546,1590698050,N
83,2085255,2.0028,-3.8644,7.5900,-27.6500,10.7800,47.6700,1001.2344,0.9678,-3.7719,9.0004,1590698050,N
83,2076715,0.9906,-4.7498,8.4658,-58.4500,3.9900,20.8600,1001.2346,0.9259,-4.6070,8.6075,1590698050,N
82,2064399,4.2401,-6.6903,8.2457,-71.1900,-39.8300,-106.3300,1001.2341,1.9487,-5.0559,8.1738,1590698051,N
83,2057165,1.6415,-3.7328,7.7312,27.0900,-105.3500,-61.1800,1001.2335,2.9056,-5.0138,7.9114,1590698051,N
83,2068451,1.6941,-5.1972,3.4505,-31.1500,-144.2000,-92.6800,1001.2336,4.3162,-5.5280,6.8543,1590698051,N
83,2071125,3.1561,-4.9364,10.0403,-5.0400,-104.1600,-54.2500,1001.2339,5.0844,-5.3150,6.4861,1590698051,N
83,2074260,6.2788,-4.8215,9.0401,17.0800,104.5100,38.1500,1001.2343,4.2223,-5.0651,7.2586,1590698051,N
83,2081728,3.4648,-3.0820,5.9438,-34.5100,85.7500,-51.3100,1001.2358,3.9497,-4.7478,7.6176,1590698051,N
83,2083277,4.9675,-4.7067,9.3081,-5.6000,66.8500,2.3800,1001.2363,3.4808,-4.5307,7.9704,1590698051,N
82,2084135,2.0985,-2.8881,10.5523,38.0100,132.4400,-22.8900,1001.2364,2.1496,-3.4717,8.9161,1590698051,N
83,2058858,0.7729,-4.0487,8.5639,104.5800,79.3800,43.4000,1001.2371,0.7327,-2.2171,9.5246,1590698051,N
83,2012261,0.4020,0.5480,6.8267,-15.7500,13.1600,26.3200,1001.2372,0.7270,-2.0101,9.5709,1590698051,N
83,1992260,5.5059,-6.2859,9.0927,-39.6200,-28.9100,-13.0900,1001.2368,1.6742,-2.9635,9.1970,1590698052,N
82,1998430,7.5541,-4.9555,6.0323,-267.2600,-86.3800,-131.1800,1001.2355,4.3405,-5.2133,7.0818,1590698052,N
82,2000309,1.4094,-3.9888,4.8239,-19.3200,-83.3000,-59.3600,1001.2339,4.9860,-5.2548,6.6104,1590698052,N
82,1997967,-1.9478,-8.4754,9.4445,-34.7200,-95.2000,-51.1700,1001.2332,5.2095,-5.5365,6.1950,1590698052,N
82,1994297,4.5559,-7.8772,12.2201,14.8400,38.3600,1.4700,1001.2333,4.6754,-5.4126,6.7093,1590698052,N
82,2017443,3.9434,-5.9533,6.2022,-26.1800,84.6300,11.3400,1001.2339,4.0282,-5.6251,6.9500,1590698052,N
82,2025414,6.4128,-3.4935,5.0034,24.0800,44.1000,27.3700,1001.2353,4.2024,-5.2791,7.1162,1590698052,N
82,2028078,3.9362,-5.6853,9.4612,43.3300,21.5600,23.9400,1001.2363,3.7448,-4.9718,7.5781,1590698052,N
82,2035543,3.4241,-5.1661,8.9922,38.2200,9.6600,1.7500,1001.2376,3.5040,-4.6287,7.9036,1590698052,N
82,2040379,1.6582,-2.1248,8.6524,-3.5000,11.4800,13.2300,1001.2392,3.0717,-4.2605,8.2815,1590698052,N
81,2038598,1.6606,-5.5944,7.9322,-30.0300,27.4400,11.1300,1001.2402,2.6069,-4.6226,8.2466,1590698053,N
81,2033534,1.1821,-5.6638,8.3222,-19.8100,20.3700,10.7100,1001.2411,2.1530,-4.8152,8.2673,1590698053,N
81,2028392,1.9190,-4.1300,8.6261,4.4800,0.9100,9.1700,1001.2415,2.0599,-4.6741,8.3714,1590698053,N
81,2023043,2.4144,-4.8790,8.4251,19.3200,-12.2500,-3.3600,1001.2410,2.1920,-4.6060,8.3756,1590698053,N
80,2021019,1.2419,-3.1753,8.5854,12.1800,-12.9500,0.8400,1001.2403,2.0887,-4.3732,8.5254,1590698053,N
81,2022128,1.1797,-4.2520,8.8128,-20.3000,-0.2100,10.5000,1001.2397,1.8970,-4.5604,8.4720,1590698053,N
81,2024113,1.4094,-5.2522,9.1286,-19.3200,4.8300,0.4900,1001.2390,1.7625,-4.7276,8.4091,1590698053,N
81,2028239,0.5886,-4.8263,7.9442,21.1400,43.8900,21.0700,1001.2388,1.1302,-4.2738,8.7537,1590698053,N
80,2036015,1.8185,-4.9412,8.8056,54.0400,28.2800,0.2800,1001.2388,0.9746,-3.6219,9.0610,1590698053,N
80,2038517,-0.8566,-3.0389,8.1212,56.3500,29.6800,1.8900,1001.2385,0.3907,-2.4526,9.4870,1590698053,N
80,2035626,-0.4546,-2.8020,11.4185,51.3800,2.9400,-4.8300,1001.2394,0.2152,-1.7445,9.6478,1590698054,N
80,2029146,0.1819,-1.2467,9.6383,54.3900,4.4100,19.1100,1001.2399,0.1052,-1.0489,9.7498,1590698054,N
81,2024475,-0.4762,-0.8590,9.4875,51.1000,15.8900,29.3300,1001.2403,-0.1463,-4.2513,8.8360,1590698054,N
80,2024196,-1.0217,1.4309,9.3966,11.4800,14.4200,61.9500,1001.2398,-0.4300,-0.6742,9.7740,1590698054,N
80,1812089,0.0479,-1.0193,10.5236,-15.3300,-6.3700,19.3200,1001.2401,-0.3171,-0.7852,9.7700,1590698054,N
80,1832524,-0.8830,-0.7705,8.9563,-11.4800,9.3800,1.4000,1001.2411,-0.5257,-0.9802,9.7434,1590698054,N
81,1837991,-1.4859,0.2058,9.8656,-33.3200,-1.5400,21.2800,1001.2408,-0.7678,-0.9882,9.7265,1590698054,N
80,1833539,-1.2778,-3.0006,10.0834,-57.2600,-11.1300,25.6200,1001.2413,-0.9917,-1.7269,9.6023,1590698054,N
81,1840560,0.1340,-2.8092,9.6838,-19.1800,5.1100,-8.8900,1001.2415,-0.8500,-2.0436,9.5536,1590698054,N
80,1846422,0.2154,-2.9815,9.7173,-23.8700,5.3200,-42.8400,1001.2411,-0.6615,-2.4476,9.4732,1590698054,N
80,1845765,-0.2130,-3.2877,9.8489,-65.4500,-11.4800,-50.1200,1001.2405,-0.4524,-3.0346,9.3143,1590698055,N
80,1843784,0.0766,-4.3119,8.2816,-44.8700,-21.4200,-52.7800,1001.2407,-0.0848,-2.8213,9.3917,1590698055,N
80,1844597,0.3159,-4.7115,7.8269,-33.7400,-31.3600,-40.0400,1001.2413,0.2008,-7.3312,6.5103,1590698055,N
80,1851616,2.6632,-5.9892,5.9701,-54.4600,-77.1400,-32.1300,1001.2418,1.2771,-6.9581,6.7915,1590698055,N
79,1915891,2.3713,-6.7597,4.6445,-67.9000,-99.2600,-12.1800,1001.2419,1.9385,-7.7233,5.7239,1590698055,N
79,1934088,3.4696,-8.7625,9.3416,-101.4300,-102.4100,13.2300,1001.2427,2.2006,-8.3774,4.5985,1590698055,N
80,1925508,5.5011,-7.2503,3.8668,-17.0100,-49.4900,16.8700,1001.2433,2.8680,-8.3557,4.2576,1590698055,N
80,1918185,6.0849,-5.8672,2.8905,-12.8800,-69.7900,4.9000,1001.2441,3.8389,-8.1481,3.8784,1590698055,N
79,1915210,3.4050,-7.7384,9.5354,63.3500,10.2900,25.2700,1001.2451,3.6771,-7.7920,4.6834,1590698055,N
79,1906013,2.4096,-6.4128,8.2552,-52.1500,92.8900,-25.2000,1001.2462,3.1632,-7.6474,5.2613,1590698055,N
79,1975920,5.9318,-6.3960,2.9049,51.5200,93.8000,-36.1900,1001.2478,3.6414,-7.0472,5.7661,1590698056,N
79,1989679,8.1930,-6.6664,4.0869,20.9300,34.3700,-2.3100,1001.2496,3.8788,-6.8100,5.8948,1590698056,N
79,1992131,3.3069,-6.7430,5.6351,-18.2000,-2.3800,3.5000,1001.2516,3.7775,-6.9789,5.7617,1590698056,N
79,1988537,6.0873,-6.3434,5.0177,-69.3700,-69.3700,-12.5300,1001.2562,4.5134,-7.2100,4.8801,1590698056,N
79,1975591,5.0249,-5.6830,2.7087,-51.1000,-99.8200,-32.8300,1001.2589,5.3029,-7.2631,3.9112,1590698056,N
79,1963967,3.4696,-6.6114,9.5737,49.1400,-7.7000,13.4400,1001.2599,5.1285,-6.9662,4.6195,1590698056,N
79,1959251,6.1878,-6.6497,6.2692,-130.5500,12.8800,-44.7300,1001.2604,5.1820,-7.3151,3.9758,1590698056,N
78,1979690,-0.5719,-6.7406,-0.8830,228.3400,217.2800,113.5400,1001.2610,3.0446,-6.8725,6.2984,1590698056,N
79,1999644,9.6239,-5.6255,5.5059,-16.6600,-29.6100,-0.4900,1001.2624,3.7035,-6.8784,5.9280,1590698056,N
79,2005258,5.8146,-9.1597,0.2489,-4.1300,-77.5600,-51.1700,1001.2627,4.7601,-7.0165,4.9276,1590698056,N
80,1999595,6.4152,-5.6877,5.4485,85.3300,-42.7700,61.8800,1001.2626,4.9839,-6.5969,5.2737,1590698057,N
78,1986409,5.7882,-6.3266,6.9894,21.4200,-11.6200,23.0300,1001.2639,4.9481,-6.4917,5.4355,1590698057,N
79,1971497,5.4174,-6.8602,3.6036,40.3200,20.2300,33.6700,1001.2641,4.8475,-6.5985,5.3974,1590698057,N
79,1957987,5.0297,-3.7543,6.3697,-21.9100,11.8300,49.1400,1001.2648,4.7183,-6.4842,5.6448,1590698057,N
78,1957608,3.7998,-4.2640,6.9703,19.6700,29.1200,-1.0500,1001.2659,4.5293,-6.0094,6.2882,1590698057,N
79,1953919,4.7139,-5.5370,6.0299,21.1400,61.0400,-43.8900,1001.2662,4.4760,-5.5393,6.7418,1590698057,N
79,1949432,5.1685,-7.0373,6.1543,-2.3100,22.7500,9.3100,1001.2657,4.3757,-5.7615,6.6203,1590698057,N
78,1951134,4.6780,-4.4530,5.3336,5.9500,20.9300,-0.8400,1001.2641,4.3750,-5.6252,6.7370,1590698057,N
79,1946755,5.5896,-7.2215,5.0919,-51.6600,-15.4700,-60.9000,1001.2627,4.9964,-5.9084,6.0247,1590698057,N
80,1936901,6.6329,-3.2495,3.5821,-58.7300,-51.1700,-81.1300,1001.2619,6.1083,-5.5900,5.2546,1590698057,N
79,1927873,6.4822,0.6915,13.4046,-70.2800,-50.6100,80.2200,1001.2612,6.0835,-5.7953,5.0573,1590698058,N
80,1925018,7.3603,-7.6307,-0.5623,39.9700,-0.3500,-4.0600,1001.2611,6.5200,-6.0284,4.1615,1590698058,N
80,1919812,3.1418,-5.3910,8.7793,87.5700,-13.7900,35.4200,1001.2625,5.8146,-5.8201,5.3373,1590698058,N
80,1906812,2.2756,-6.0203,5.9414,-69.9300,36.8200,-16.1000,1001.2630,5.2889,-6.3076,5.3304,1590698058,N
80,1898045,7.8532,-7.6164,4.5631,-12.9500,95.4100,-8.0500,1001.2635,4.9601,-6.3400,5.6010,1590698058,N
81,1916235,8.7864,-7.9346,1.7563,-0.8400,22.7500,-8.0500,1001.2639,5.1919,-6.4563,5.2469,1590698058,N
80,1930401,4.3071,-6.6281,4.2855,31.6400,4.8300,5.7400,1001.2629,5.0701,-6.4757,5.3414,1590698058,N
81,1935067,8.7482,-4.9268,5.6662,-42.5600,-121.8000,16.4500,1001.2628,5.8552,-6.5167,4.4067,1590698058,N
80,1926170,5.1015,-5.8433,3.5821,85.8200,-6.0900,61.6700,1001.2621,5.5997,-6.4365,4.8358,1590698058,N
81,1923620,3.4863,-6.8315,6.8889,-28.9800,22.0500,1.3300,1001.2612,5.0031,-6.6942,5.1309,1590698058,N
80,1915820,6.0849,-4.1731,5.8576,-136.3600,25.4800,-63.5600,1001.2601,5.4539,-6.6065,4.7728,1590698059,N
81,1926877,6.3314,-7.9872,-0.2249,-13.7900,31.9200,-46.5500,1001.2597,5.8451,-6.8570,3.8712,1590698059,N
80,1963082,11.6363,1.4429,5.2953,85.6800,-95.5500,-21.7700,1001.2595,7.2479,-5.1464,4.1417,1590698059,N
82,1976475,5.4820,-6.1807,1.5601,2.7300,-75.1800,35.2100,1001.2589,7.4298,-5.4062,3.4266,1590698059,N
80,1972392,5.5298,-4.6804,5.5992,66.0800,-13.4400,28.7000,1001.2589,7.1073,-5.2976,4.1943,1590698059,N
81,1950236,5.4796,-7.6283,6.7693,-28.7700,-31.7100,-19.6700,1001.2585,7.1068,-5.4198,4.0361,1590698059,N
81,1913634,5.6662,-4.5320,5.0512,-92.6800,17.2900,-50.4700,1001.2583,7.0732,-5.5015,3.9842,1590698059,N
80,1901677,5.7093,-6.8770,1.8568,78.8200,92.7500,22.5400,1001.2582,6.4836,-5.8079,4.5169,1590698059,N
80,1910250,9.2530,-5.7093,4.5200,21.9100,-37.0300,-10.7100,1001.2576,6.9187,-5.4493,4.3135,1590698059,N
80,1919362,3.1777,-11.6650,-1.1916,167.7900,-116.0600,-4.6200,1001.2576,7.6808,-4.8561,3.6871,1590698059,N
80,1914620,7.9490,-4.3454,4.7856,-0.4200,-1.9600,-18.7600,1001.2582,7.7779,-4.5966,3.8140,1590698060,N
79,1916967,2.5651,-9.9829,0.4235,76.3700,-82.8100,9.0300,1001.2582,7.7586,-5.1028,3.1521,1590698060,N
80,1990407,5.2810,-2.6369,7.8078,-46.9700,52.7100,11.6900,1001.2582,7.1894,-5.1483,4.2400,1590698060,N
80,1962724,4.9316,-4.5942,5.1900,-188.3700,73.9200,-64.2600,1001.2587,6.8511,-5.8244,3.9127,1590698060,N
79,1950511,8.6620,-6.3218,-1.9669,58.0300,-43.6100,-18.1300,1001.2595,7.5220,-5.3844,3.2553,1590698060,N
79,1953829,7.8293,-8.5496,1.5721,81.7600,-0.1400,67.7600,1001.2596,7.1886,-5.6794,3.4983,1590698060,N
79,1953303,9.1573,-2.6608,7.4201,35.9100,-55.9300,40.2500,1001.2596,7.3979,-5.2912,3.6668,1590698060,N
79,1956483,4.2329,-5.9174,4.7641,30.3100,-26.1100,0.9100,1001.2595,7.2536,-5.3268,3.8962,1590698060,N
79,1960598,6.2501,-5.5442,5.1900,-43.6800,47.0400,-12.8100,1001.2589,6.8711,-5.5723,4.2318,1590698060,N
78,1963574,6.0179,-7.2407,4.0080,-94.2200,48.0200,-21.4200,1001.2577,6.4377,-6.2415,3.9710,1590698060,N
79,1952362,4.5296,-11.4521,2.8570,80.9200,115.9900,-3.7800,1001.2574,5.7142,-6.2380,4.9604,1590698061,N
78,1960280,7.7264,-7.0038,0.1196,6.6500,-5.3900,12.1800,1001.2569,6.0948,-6.5610,3.9971,1590698061,N
79,1959884,6.2979,-8.3175,2.1846,42.1400,-30.3800,23.9400,1001.2567,6.1832,-6.6676,3.6717,1590698061,N
78,1957958,7.6786,-5.5537,5.9605,41.5100,-61.2500,27.6500,1001.2568,6.5177,-6.2957,3.7488,1590698061,N
78,1966730,3.4122,-6.8028,5.2020,79.3100,-21.8400,35.4200,1001.2568,5.9194,-6.4053,4.4837,1590698061,N
78,1972213,3.8836,-4.8215,6.6951,-43.6100,30.8000,-22.8900,1001.2570,5.5718,-6.3850,4.9354,1590698061,N
78,1972458,5.1613,-9.2219,5.8887,-106.7500,52.5000,-60.3400,1001.2568,5.3927,-6.7873,4.5849,1590698061,N
77,1976925,4.8838,-8.3940,4.1300,-0.7700,92.1900,-20.5100,1001.2570,4.9593,-6.8979,4.8984,1590698061,N
78,1977493,8.1978,-7.3914,3.3404,-49.0700,-22.2600,0.9100,1001.2556,5.2028,-7.1628,4.2184,1590698061,N
77,1972303,5.6423,-5.3432,3.4959,-1.9600,-76.9300,29.3300,1001.2562,5.4989,-7.1860,3.7807,1590698061,N
78,1968280,3.3093,-7.3866,6.9870,16.5200,-21.6300,6.0200,1001.2567,5.1362,-7.1584,4.3066,1590698062,N
78,1971291,4.5511,-6.8100,5.4915,-13.9300,4.7600,-5.4600,1001.2573,5.0153,-7.1391,4.4778,1590698062,N
77,1974077,4.7641,-8.6979,6.0395,10.9900,14.0700,15.1900,1001.2582,4.7446,-7.1967,4.6761,1590698062,N
77,1974582,2.5149,-6.2907,7.7743,43.5400,56.0700,17.7100,1001.2583,3.9984,-6.8962,5.7119,1590698062,N
77,1980000,2.6345,-6.0371,5.6710,46.6200,68.5300,-18.1300,1001.2576,3.6223,-6.3667,6.5203,1590698062,N
77,1981970,5.6375,-7.7336,5.5681,24.2900,38.2200,56.2800,1001.2564,3.2601,-6.5082,6.5716,1590698062,N
76,1981036,4.4746,-5.6638,8.0973,4.8300,-7.9800,-8.3300,1001.2544,3.4544,-6.2866,6.6870,1590698062,N
77,1982576,1.2275,-7.6953,6.7932,89.0400,20.7900,28.6300,1001.2528,2.7316,-6.0084,7.2531,1590698062,N
77,2002574,0.7370,0.5695,8.9348,-44.1700,5.0400,10.2200,1001.2512,3.0356,-4.6832,8.0637,1590698062,N
77,2004668,1.4883,-5.7476,8.1165,42.9800,-8.6800,-17.6400,1001.2496,2.7711,-4.4980,8.2619,1590698062,N
77,2005768,2.4168,-5.4724,8.8965,-1.6800,-16.1000,-5.4600,1001.2474,2.7921,-4.6549,8.1674,1590698063,N
77,2007023,2.4574,-4.3214,8.3007,-5.8800,2.1000,-6.2300,1001.2446,2.7468,-4.6113,8.2074,1590698063,N
77,2007974,2.0315,-5.2929,8.5950,7.9800,-3.3600,-2.5200,1001.2424,2.6038,-4.6398,8.2379,1590698063,N
77,2008276,2.5412,-4.9842,7.9633,11.8300,-11.2000,14.8400,1001.2414,2.6083,-4.7461,8.1757,1590698063,N
77,2010996,2.4790,-4.3334,8.7075,-21.2100,-3.0100,5.6000,1001.2408,2.6022,-4.8423,8.1210,1590698063,N
77,2028415,2.4790,-5.4126,8.4538,-16.7300,1.7500,15.3300,1001.2403,2.5057,-5.0868,8.0010,1590698063,N
77,2042570,3.9458,-5.5370,6.6305,-90.3700,-48.0900,6.0200,1001.2402,3.1434,-6.0790,7.0239,1590698063,N
76,2052534,2.4048,-7.7623,7.1952,-38.9900,-12.5300,12.0400,1001.2395,3.0490,-6.5679,6.6134,1590698063,N
77,2079460,2.2804,-6.1783,6.5731,-0.1400,-22.9600,32.9000,1001.2388,2.8647,-6.8076,6.4514,1590698063,N
77,2095029,1.6558,-5.6423,7.6857,34.3000,13.7900,-3.9200,1001.2381,2.5899,-6.3580,7.0027,1590698063,N
77,2102468,2.9575,-6.4056,6.6090,41.4400,20.8600,-15.4700,1001.2382,2.6172,-5.9444,7.3474,1590698064,N
78,2101479,3.5988,-7.6642,6.8794,22.9600,8.8900,-0.5600,1001.2388,2.6344,-5.8563,7.4118,1590698064,N
77,2101970,2.7685,-6.1854,8.4443,37.3100,5.7400,12.3900,1001.2392,2.5065,-5.5882,7.6589,1590698064,N
78,2104990,1.0217,-4.4626,8.4323,48.3000,18.4100,6.1600,1001.2389,2.0494,-5.0311,8.1645,1590698064,N
78,2105148,1.5242,-3.8070,8.4467,24.9200,15.3300,-9.4500,1001.2383,1.8683,-4.4757,8.5234,1590698064,N
78,2103461,2.4742,-4.8048,8.3964,1.7500,6.6500,-9.7300,1001.2377,1.9563,-4.4163,8.5346,1590698064,N
78,2101697,2.6034,-5.2690,8.0566,-3.7800,-3.0800,7.0700,1001.2375,2.0828,-4.6664,8.3700,1590698064,N
78,2100692,2.0937,-4.5559,8.4849,-4.0600,-10.5700,5.9500,1001.2375,2.1414,-4.7668,8.2984,1590698064,N
78,2100068,2.2349,-5.3839,8.6620,6.8600,-8.3300,16.5900,1001.2369,2.1292,-4.9150,8.2146,1590698064,N
78,2095918,2.2493,-4.4291,8.6166,-0.4900,-8.4700,-3.9200,1001.2362,2.2198,-4.8313,8.2402,1590698064,N
79,2090448,1.2897,-4.2305,9.2267,3.3600,0.6300,-14.6300,1001.2363,2.0618,-4.6055,8.4088,1590698065,N
79,2089265,2.6297,-5.0967,8.1069,9.8000,1.1900,-1.1200,1001.2366,2.1520,-4.6086,8.3845,1590698065,N
79,2087760,3.4839,-4.8909,7.8820,16.3100,-6.7200,-1.1900,1001.2368,2.4340,-4.5813,8.3221,1590698065,N
79,2084572,3.3021,-4.6660,8.7482,-11.5500,-10.7100,8.5400,1001.2365,2.6235,-4.7163,8.1880,1590698065,N
78,2085870,2.5531,-4.1372,7.8317,17.9900,-7.9100,-0.2100,1001.2356,2.6746,-4.5509,8.2648,1590698065,N
78,2087360,3.2542,-5.3767,8.5831,-38.9200,-11.9000,3.5700,1001.2346,2.8512,-4.9889,7.9468,1590698065,N
78,2094341,2.5005,-4.8957,9.0616,-56.3500,-2.0300,3.9900,1001.2344,2.8029,-5.3379,7.7344,1590698065,N
78,2100047,3.3523,-5.7117,6.8291,-44.8700,-11.6900,4.3400,1001.2344,3.0230,-5.8295,7.2835,1590698065,N
78,2102933,2.0435,-8.5113,7.1880,-63.9800,-14.7700,14.2800,1001.2346,2.9233,-6.5884,6.6496,1590698065,N
78,2107260,1.3687,-5.7691,7.2766,6.5800,8.3300,33.2500,1001.2351,2.4192,-6.6223,6.8164,1590698065,N
79,2104877,1.6702,-6.3745,6.6688,65.2400,23.9400,-1.1200,1001.2358,2.1474,-6.0791,7.3895,1590698066,N
79,2101751,1.6606,-6.0706,6.4487,41.2300,-1.3300,-11.0600,1001.2365,2.1201,-5.8383,7.5888,1590698066,N
79,2099378,1.7276,-5.4485,9.4923,85.4000,-1.5400,3.9900,1001.2371,1.9972,-5.0825,8.1455,1590698066,N
80,2100247,1.7204,-5.3384,8.9563,35.7700,21.5600,23.5200,1001.2384,1.6798,-4.7918,8.3897,1590698066,N
79,2096493,1.8449,-4.2616,8.8822,5.4600,36.6100,34.5100,1001.2388,1.3552,-4.5114,8.6012,1590698066,N
80,2306618,2.4191,-2.9791,7.3890,26.3200,9.4500,27.0200,1001.2393,1.3535,-4.2249,8.7458,1590698066,N
80,2220820,1.7946,-3.8764,9.3799,14.7000,-15.0500,-10.1500,1001.2396,1.5455,-4.0447,8.7990,1590698066,N
80,2093082,0.4977,-3.1370,9.5737,-7.0000,-13.7900,-16.4500,1001.2393,1.4780,-4.0124,8.8253,1590698066,N
80,2061538,1.4381,-4.1874,8.9372,-23.0300,-16.9400,-13.5800,1001.2387,1.6436,-4.2871,8.6654,1590698066,N
81,2060662,3.0604,-5.1063,9.8536,-44.5900,-16.3800,-1.1900,1001.2387,1.9286,-4.8032,8.3295,1590698066,N
81,2065319,3.1633,-5.2116,7.5948,-80.1500,-13.7900,-4.1300,1001.2385,2.3424,-5.5576,7.7328,1590698067,N
81,2065998,0.9691,-3.2447,9.0042,-9.8000,1.1200,15.6800,1001.2385,2.0312,-5.3535,7.9614,1590698067,N
81,2069881,-0.0526,-6.2118,6.7765,48.1600,-2.2400,-10.2900,1001.2379,1.6452,-5.1603,8.1753,1590698067,N
81,2064773,1.2969,-3.6275,12.2034,5.8100,51.6600,-51.8700,1001.2385,1.3220,-4.0586,8.8290,1590698067,N
81,2062870,2.0746,-4.1396,6.2189,-6.9300,50.8900,-62.2300,1001.2386,1.2388,-3.6905,9.0009,1590698067,N
81,2059144,0.2656,-5.6136,8.0423,49.7700,59.5700,-38.8500,1001.2380,0.5604,-2.8729,9.3596,1590698067,N
81,2060923,0.8136,-2.7517,5.7691,-32.4800,7.6300,-43.6100,1001.2366,0.7737,-3.2166,9.2317,1590698067,N
82,2055797,1.8855,-6.8339,11.9378,-14.4200,18.0600,-32.8300,1001.2344,0.8149,-3.3180,9.1922,1590698067,N
82,2057855,-0.7848,-3.6084,8.5998,38.9200,24.2900,-30.5900,1001.2322,0.2048,-2.4727,9.4876,1590698067,N
82,2058567,-0.5791,-5.9270,8.8678,4.2700,16.8700,-62.0900,1001.2310,0.0715,-2.4396,9.4981,1590698067,N
81,2058437,1.3017,-5.3862,9.5809,55.4400,38.0800,22.8900,1001.2297,-0.3307,-1.5650,9.6753,1590698068,N
82,2049745,2.3163,-4.1180,9.2842,-5.0400,1.3300,-8.4700,1001.2292,0.2019,-2.2371,9.5459,1590698068,N
82,2050700,0.3039,-3.7543,8.3797,9.4500,-3.9900,4.0600,1001.2291,0.2395,-2.2893,9.5327,1590698068,N
82,2050659,1.0624,-4.4913,9.5474,-8.7500,-25.4800,0.1400,1001.2288,0.6332,-3.0073,9.3127,1590698068,N
81,2050595,1.9119,-3.8907,9.8321,-7.6300,-7.4200,3.0800,1001.2280,0.9276,-3.3529,9.1689,1590698068,N
82,2051774,-0.3541,-5.4269,9.4205,-17.3600,14.8400,0.5600,1001.2279,0.6737,-3.3491,9.1924,1590698068,N
81,2054676,-0.1292,-4.8359,8.7290,-13.2300,30.3100,21.7000,1001.2271,0.2210,-2.9205,9.3591,1590698068,N
81,2059221,-0.2608,-4.5344,8.6692,43.3300,5.3900,-3.6400,1001.2263,0.0501,-2.2501,9.5449,1590698068,N
81,2063803,0.4020,-1.1198,9.5210,88.0600,19.6000,-7.6300,1001.2266,-0.0938,-0.9610,9.7590,1590698068,N
82,2067094,0.4379,-2.9886,8.3605,-46.5500,6.8600,-70.2800,1001.2266,0.1180,-1.7972,9.6398,1590698068,N
82,2062319,-3.3667,-3.2351,10.3083,-27.7200,-47.4600,-40.8100,1001.2269,0.3554,-2.4992,9.4762,1590698069,N
82,2069239,2.1392,-4.0343,9.3918,-17.2200,2.8700,23.8000,1001.2264,0.6385,-3.1361,9.2697,1590698069,N
82,2071572,0.1627,-3.9721,7.8174,14.4200,-36.4700,12.6700,1001.2251,0.8717,-3.8298,8.9857,1590698069,N
82,2071783,-0.3613,-2.6010,9.7149,23.3100,-8.6100,8.3300,1001.2245,0.6443,-3.8983,8.9754,1590698069,N
82,2072019,1.8329,-3.8309,10.1504,17.7800,-9.9400,16.8700,1001.2236,0.7887,-4.0197,8.9101,1590698069,N
82,2072492,1.9956,-2.7039,9.4110,14.0000,-4.1300,4.0600,1001.2230,1.0388,-3.4487,9.1213,1590698069,N
82,2071967,1.4381,-2.7661,9.5139,8.6100,0.6300,-0.3500,1001.2234,1.1004,-3.1399,9.2250,1590698069,N
82,2068071,1.4644,-2.5579,9.8225,2.1000,-5.5300,0.3500,1001.2238,1.2033,-2.9904,9.2618,1590698069,N
82,2064045,0.7466,-2.6249,9.6239,11.5500,-2.6600,3.0100,1001.2233,1.1131,-2.8697,9.3111,1590698069,N
83,2061927,1.0385,-2.3378,9.0903,1.4700,-2.2400,2.3100,1001.2230,1.1201,-2.7858,9.3357,1590698069,N
83,2059739,1.5290,-2.3569,9.3847,-21.0000,-4.2000,-8.0500,1001.2236,1.2793,-2.8577,9.2934,1590698070,N
83,2057417,1.4142,-3.0891,9.8919,-6.0900,3.4300,-7.2800,1001.2242,1.2817,-2.8589,9.2927,1590698070,N
84,2056505,1.7635,-3.2351,8.7984,-12.6000,-0.3500,-5.3200,1001.2248,1.4197,-3.0518,9.2109,1590698070,N
83,2055199,1.0768,-2.6919,9.7962,3.5000,-7.0000,0.2100,1001.2252,1.3927,-2.9937,9.2341,1590698070,N
83,2053306,0.6987,-3.6371,9.7053,27.2300,0.0700,11.9700,1001.2265,1.1891,-2.8966,9.2933,1590698070,N
83,2049403,0.6365,-2.1846,8.6142,-2.1000,4.3400,11.6200,1001.2273,1.0403,-2.8355,9.3300,1590698070,N
83,2044427,2.3067,-2.5077,9.9709,-10.0100,1.1900,-2.8000,1001.2275,1.2646,-2.7897,9.3160,1590698070,N
83,2039681,1.5410,-2.7805,9.4469,4.2700,2.0300,-10.4300,1001.2278,1.3065,-2.6911,9.3393,1590698070,N
83,2037156,1.5123,-3.0580,9.4851,-4.4100,-5.6700,-3.3600,1001.2269,1.4005,-2.8213,9.2870,1590698070,N
83,2036109,0.9619,-2.8259,9.6861,1.1900,-4.7600,5.1100,1001.2262,1.3340,-2.8576,9.2857,1590698070,N
82,2037020,0.9236,-2.5651,9.4875,24.7800,6.1600,12.0400,1001.2254,1.1394,-2.5748,9.3937,1590698071,N
83,2037644,1.8736,-2.1081,9.1023,-7.9800,2.2400,3.2200,1001.2247,1.2833,-2.5447,9.3834,1590698071,N
83,2035812,1.7611,-2.3258,9.5617,-6.4400,1.0500,-8.1200,1001.2247,1.3885,-2.5145,9.3765,1590698071,N
83,2030587,1.4142,-2.5507,9.2698,-7.9800,-0.1400,-8.7500,1001.2258,1.4293,-2.5735,9.3544,1590698071,N
82,2027025,1.1916,-3.1442,9.7699,-3.7100,-6.6500,-3.3600,1001.2265,1.4405,-2.7220,9.3105,1590698071,N
83,2026837,1.0887,-2.8044,9.6215,3.6400,-2.2400,8.1200,1001.2271,1.3612,-2.7362,9.3183,1590698071,N
82,2027003,1.2395,-2.5938,9.4708,23.1000,6.0900,11.2700,1001.2275,1.2227,-2.4878,9.4067,1590698071,N
82,2026302,2.0746,-2.3450,9.3512,-6.9300,3.2200,3.0800,1001.2281,1.3655,-2.5056,9.3823,1590698071,N
82,2024232,1.8640,-2.3474,9.6646,-4.6200,2.3100,-7.8400,1001.2285,1.4563,-2.4630,9.3799,1590698071,N
82,2022588,1.3663,-2.9049,9.4828,-9.1000,-3.4300,-7.9800,1001.2290,1.4974,-2.6179,9.3314,1590698071,N
82,2021776,0.9619,-2.7685,9.5641,-1.4700,-4.2000,4.9700,1001.2298,1.4141,-2.6965,9.3220,1590698072,N
82,2019451,1.1821,-2.6130,9.7077,18.4100,2.1000,8.7500,1001.2305,1.2917,-2.5155,9.3901,1590698072,N
81,2016359,1.7635,-2.2804,9.0712,4.0600,1.1200,3.2900,1001.2309,1.3706,-2.4475,9.3969,1590698072,N
82,2014170,1.5529,-2.8331,10.0068,-2.6600,8.4700,0.3500,1001.2309,1.3195,-2.4480,9.4041,1590698072,N
81,2012142,1.4213,-2.0698,9.0138,-4.2700,-2.5200,0.1400,1001.2310,1.3855,-2.4460,9.3951,1590698072,N
81,2012150,0.9835,-2.2995,9.7077,5.6700,-1.7500,2.8000,1001.2317,1.2972,-2.3829,9.4239,1590698072,N
81,2014063,1.3639,-2.4048,9.1119,4.8300,0.2100,2.5200,1001.2324,1.3025,-2.3649,9.4277,1590698072,N
81,2016555,1.2778,-2.3545,9.6622,-5.1800,-2.4500,-7.2100,1001.2322,1.3348,-2.3969,9.4151,1590698072,N
81,2017559,1.3065,-2.5890,9.6718,3.8500,3.7800,0.8400,1001.2323,1.2800,-2.3608,9.4318,1590698072,N
81,2016344,1.3687,-2.2875,9.2842,-0.9800,0.0700,3.9200,1001.2314,1.2976,-2.3710,9.4268,1590698072,N
81,2014177,1.5170,-1.9190,9.6048,-1.8200,-0.6300,2.2400,1001.2305,1.3477,-2.2969,9.4381,1590698073,N
81,2011424,1.4094,-2.3737,9.3368,-2.5200,-0.7700,-3.5700,1001.2301,1.3800,-2.3345,9.4242,1590698073,N
81,2009279,1.2156,-2.4766,9.7077,-16.8000,-1.2600,-13.7900,1001.2297,1.4122,-2.4708,9.3846,1590698073,N
81,2007294,1.2826,-3.0963,9.8178,4.2700,5.9500,1.2600,1001.2289,1.3120,-2.4775,9.3974,1590698073,N
80,2006949,1.2227,-2.8235,9.1095,-3.5700,0.8400,3.8500,1001.2284,1.2945,-2.5867,9.3704,1590698073,N
80,2007714,1.4740,-2.9647,9.4325,-10.7800,-0.9100,3.2200,1001.2283,1.3494,-2.7590,9.3133,1590698073,N
80,2008184,1.7946,-2.1464,9.4038,-20.7900,-4.0600,-7.9100,1001.2280,1.5392,-2.8210,9.2652,1590698073,N
80,2009391,0.8997,-2.8618,9.4229,-2.8700,-0.4200,-9.9400,1001.2286,1.4318,-2.8237,9.2816,1590698073,N
80,2012253,1.2802,-3.4409,9.5210,7.2100,3.2200,-1.5400,1001.2282,1.3549,-2.8188,9.2946,1590698073,N
80,2014246,1.7659,-3.3523,8.6405,13.5100,3.9200,8.8900,1001.2278,1.3782,-2.8386,9.2851,1590698073,N
80,2013350,1.4788,-3.4241,9.3966,-4.6900,-5.4600,2.8700,1001.2272,1.4395,-3.0250,9.2167,1590698074,N
80,2010942,1.5123,-2.2014,9.5904,-6.1600,-4.6200,-2.3100,1001.2271,1.5123,-2.9237,9.2377,1590698074,N
80,2009732,1.3735,-2.9910,9.3296,2.9400,-4.1300,-5.2500,1001.2270,1.5199,-2.9211,9.2373,1590698074,N
79,2011670,1.5601,-3.3021,9.4253,-13.5100,3.2200,-11.2000,1001.2269,1.5407,-3.0333,9.1976,1590698074,N
79,2013158,1.9478,-4.0750,9.2052,5.9500,4.4800,-0.4200,1001.2272,1.5635,-3.1224,9.1639,1590698074,N
79,2011584,1.8664,-2.9097,8.8008,-3.5000,-0.8400,2.4500,1001.2275,1.6469,-3.1474,9.1407,1590698074,N
79,2008437,1.5864,-3.2758,9.4301,-7.6300,-4.8300,2.5200,1001.2281,1.6734,-3.2590,9.0966,1590698074,N
79,2005558,1.5553,-3.3308,9.3057,2.1000,-0.8400,-1.9600,1001.2284,1.6502,-3.2418,9.1070,1590698074,N
79,2004619,1.3089,-3.4074,9.1071,-3.3600,0.9100,-0.4900,1001.2291,1.5812,-3.2934,9.1007,1590698074,N
79,2005098,1.9597,-3.1178,9.1214,-4.5500,7.0700,-7.7700,1001.2296,1.6238,-3.2208,9.1192,1590698074,N
79,2006267,2.1488,-4.1994,8.9204,-4.9000,-2.4500,-5.4600,1001.2291,1.7626,-3.4369,9.0139,1590698075,N
79,2007762,1.5960,-3.6060,9.0855,-3.3600,-6.5100,8.2600,1001.2298,1.7642,-3.5637,8.9643,1590698075,N
79,2005909,1.1916,-3.0030,9.4899,-5.6700,-3.9200,2.3100,1001.2299,1.6776,-3.5347,8.9923,1590698075,N
79,2002477,2.0770,-3.3763,8.9827,0.3500,5.5300,-5.8100,1001.2312,1.7254,-3.4409,9.0196,1590698075,N
79,2001175,2.1105,-4.1659,8.7410,2.3100,3.0800,-12.1100,1001.2325,1.8007,-3.4987,8.9826,1590698075,N
79,2001013,2.0387,-4.2305,9.0616,-11.9000,-3.6400,-1.8200,1001.2332,1.8886,-3.7255,8.8727,1590698075,N
79,2002241,1.9454,-3.5055,9.0520,-12.6700,-5.6700,2.5200,1001.2343,1.9562,-3.8234,8.8162,1590698075,N
79,2002136,1.8951,-3.9218,9.2865,8.4000,4.7600,0.2100,1001.2350,1.8755,-3.7100,8.8819,1590698075,N
79,2001906,1.6080,-4.0152,9.5282,24.0100,-2.7300,14.5600,1001.2360,1.7496,-3.6003,8.9525,1590698075,N
79,2003401,0.9404,-3.1872,8.6812,46.9700,6.5100,25.2700,1001.2360,1.4274,-3.2341,9.1473,1590698075,N
80,2003191,2.2086,-2.5005,9.1406,4.4100,4.4800,9.9400,1001.2366,1.5223,-3.0244,9.2036,1590698076,N
80,1997988,2.1679,-2.8786,9.6024,-4.6900,7.4900,0.3500,1001.2370,1.5752,-2.9460,9.2201,1590698076,N
80,1994057,1.9358,-2.8905,9.2937,-12.8100,4.6200,-6.1600,1001.2373,1.6409,-2.9836,9.1965,1590698076,N
80,1991885,1.4118,-3.3715,9.7340,-16.4500,0.7700,-7.1400,1001.2371,1.6193,-3.1333,9.1504,1590698076,N
80,1992723,1.0361,-3.6060,9.3344,1.4000,5.8100,-0.5600,1001.2362,1.4487,-3.1430,9.1757,1590698076,N
80,1997713,0.4283,-3.4648,9.5976,18.7600,12.6000,9.8700,1001.2352,1.0861,-2.9262,9.2967,1590698076,N
80,2004601,0.1723,-3.0245,8.8439,22.2600,25.6900,17.5000,1001.2352,0.6307,-2.4852,9.4655,1590698076,N
81,2008244,-0.0909,-2.4694,10.3537,36.5400,38.7800,21.0000,1001.2343,0.0738,-1.3044,9.7192,1590698076,N
81,2006190,-1.1390,-1.8353,8.8319,49.0700,65.3100,40.5300,1001.2335,-0.5446,-5.2628,8.2569,1590698076,N
81,1990505,-1.1605,-1.7133,10.7486,61.9500,63.4200,15.0500,1001.2332,-1.1874,-3.8635,8.9350,1590698076,N
80,1967798,-1.9119,-0.3422,9.3368,68.5300,48.7200,16.4500,1001.2327,-4.7141,-5.6083,6.5188,1590698077,N
81,1988079,-2.7541,1.6582,10.5643,25.1300,59.8500,-9.1000,1001.2333,-6.0196,-5.0828,5.8395,1590698077,N
81,1991806,-3.6084,1.3232,7.6881,5.7400,40.1800,-6.0900,1001.2334,-6.9094,-4.4610,5.3414,1590698077,N
81,2173368,-4.7067,3.1777,5.5131,8.1900,-23.1700,-15.4000,1001.2327,-7.2079,-3.6296,5.5717,1590698077,N
81,2176429,-4.6301,0.9571,10.0666,9.5900,2.0300,0.9100,1001.2321,-7.4301,-2.9502,5.6799,1590698077,N
81,2515661,-3.1370,1.5386,9.9972,-1.6100,-24.2900,16.5900,1001.2327,-7.2903,-1.5737,6.3675,1590698077,N
81,2539570,-4.6277,1.0768,8.7314,-17.4300,-9.8700,-5.4600,1001.2338,-7.4526,-1.1107,6.2766,1590698077,N
81,2431693,-0.1172,0.4307,8.7099,-55.7900,-22.5400,56.1400,1001.2351,-6.5803,-0.3918,7.2606,1590698077,N
81,2637986,-3.4146,2.2421,8.6859,8.2600,-24.5700,11.5500,1001.2365,-6.2736,0.3438,7.5296,1590698077,N
81,2517511,-3.7280,1.5123,10.1767,-2.7300,-20.7900,-3.8500,1001.2375,-5.2805,0.4911,8.2489,1590698077,N
81,2384420,-1.5697,0.2800,9.3057,-30.4500,-21.0700,-12.0400,1001.2388,-3.6148,0.2687,9.1121,1590698078,N
81,2276321,-2.0124,0.0072,9.6790,-23.2400,-16.9400,8.1900,1001.2378,-3.5727,0.0886,9.1323,1590698078,N
82,2218034,-1.7109,0.4307,10.0690,-14.7700,-24.6400,3.9900,1001.2380,-3.8958,0.1302,8.9987,1590698078,N
81,2168258,-1.5673,-0.2058,9.8393,-21.5600,-20.7900,-6.4400,1001.2373,-5.8834,-0.0528,7.8456,1590698078,N
82,2141898,-1.2754,-0.6939,9.4971,-8.8900,-28.5600,-9.9400,1001.2368,-2.6798,-0.3991,9.4249,1590698078,N
81,2128109,-0.5503,-0.6293,8.9994,-64.7500,-162.9600,75.9500,1001.2370,-1.8962,-0.8508,9.5839,1590698078,N
81,1953579,0.3781,-0.8877,9.7460,-22.0500,-26.5300,-15.3300,1001.2362,-0.2006,-0.8868,9.7644,1590698078,N
81,1939735,0.6030,-1.8042,9.3464,-19.0400,-34.0200,-15.9600,1001.2353,0.4166,-0.8355,9.7621,1590698078,N
81,1934173,1.7707,-1.6510,9.8776,-35.1400,-42.0700,-20.1600,1001.2346,1.0285,-0.5249,9.7384,1590698078,N
81,1931542,2.8283,-2.5627,9.2124,-32.1300,-35.7000,-19.4600,1001.2338,1.5505,0.2398,9.6803,1590698078,N
81,1931479,3.5414,-2.4024,9.2172,6.1600,-11.9000,-12.0400,1001.2329,1.7140,1.7970,9.4870,1590698079,N
81,1932603,3.7591,-1.8305,9.6694,6.0900,-16.9400,-7.6300,1001.2324,1.8073,-5.3284,8.0319,1590698079,N
81,1934485,4.6229,-3.5677,7.8078,48.0200,4.9700,7.2800,1001.2322,2.2841,-4.3933,8.4648,1590698079,N
81,1944159,3.6108,-1.0863,9.4397,82.2500,34.2300,7.1400,1001.2321,2.1853,-2.5537,9.2127,1590698079,N
81,2486108,1.6032,1.4692,10.0331,42.9100,23.1700,-11.9700,1001.2325,4.9265,-2.7357,8.0259,1590698079,N
81,4197891,1.0504,1.9310,9.9374,13.9300,-5.2500,-19.8100,1001.2327,5.2223,-1.3880,8.1836,1590698079,N
81,4197917,1.4405,1.2730,10.3418,2.3800,-9.6600,-8.6800,1001.2327,5.7696,-0.6812,7.9005,1590698079,N
81,4197909,2.0961,2.0674,9.8321,-10.1500,9.2400,4.2000,1001.2332,6.4760,-0.1262,7.3632,1590698079,N
81,4197886,2.2301,-0.6461,9.9039,-10.6400,18.7600,3.2900,1001.2336,5.3517,-0.2803,8.2129,1590698079,N
81,4197881,1.6343,0.7801,9.8321,25.9000,11.8300,9.1000,1001.2341,6.2768,0.1214,7.5338,1590698079,N
81,4197892,1.5769,0.3733,9.7675,10.5700,7.7000,3.9900,1001.2336,5.7428,0.3334,7.9423,1590698080,N
81,4197909,0.8758,1.7061,9.6646,41.0900,18.3400,8.6100,1001.2321,3.2267,1.0589,9.1998,1590698080,N
81,4198082,1.5553,1.7228,9.3655,24.0100,13.8600,3.6400,1001.2307,2.6103,1.3620,9.3542,1590698080,N
81,4197896,0.2034,6.2620,10.3035,48.6500,4.8300,0.8400,1001.2303,2.5912,2.0722,9.2283,1590698080,N
81,4197920,0.7250,3.0030,8.9468,15.1200,-9.2400,2.3100,1001.2300,2.1851,2.3398,9.2693,1590698080,N
81,4197846,0.9691,3.3954,9.5067,-6.5800,-15.8900,1.1900,1001.2296,1.9588,2.4394,9.2942,1590698080,N
81,4197892,1.4333,3.2518,9.2842,-28.0000,-18.5500,9.9400,1001.2280,1.9016,2.3637,9.3256,1590698080,N
81,4197908,2.0004,1.8903,9.5306,-25.0600,7.9800,6.5800,1001.2272,1.7656,2.0118,9.4343,1590698080,N
81,3896980,1.1964,1.9908,9.6120,-47.7400,11.8300,-8.3300,1001.2258,1.3342,1.5412,9.5924,1590698080,N
81,4197826,1.9908,0.2560,9.3057,-8.7500,1.8900,1.2600,1001.2251,1.4237,1.2074,9.6273,1590698080,N
81,4197850,1.2395,1.2251,9.6000,44.1000,20.8600,5.8800,1001.2244,1.4298,1.5186,9.5823,1590698081,N
81,4197951,0.5408,3.0772,9.6168,7.7000,6.7200,-1.1200,1001.2241,1.2302,1.7678,9.5672,1590698081,N
81,4198023,1.4357,0.8518,9.6694,-29.2600,-3.2900,-5.9500,1001.2236,1.1932,1.3532,9.6393,1590698081,N
81,4197936,1.3280,0.6556,9.8130,-11.8300,-4.4100,0.7700,1001.2235,1.2164,1.1225,9.6660,1590698081,N
81,4197811,1.1390,0.6963,9.6550,9.3800,5.8800,3.0800,1001.2239,1.2102,1.0958,9.6698,1590698081,N
81,4198018,1.0624,1.7204,9.5067,23.8000,7.5600,8.4000,1001.2241,1.2431,1.3821,9.6289,1590698081,N
81,4197997,0.8399,2.8116,9.7388,21.9100,10.0100,10.7800,1001.2234,1.1872,1.7215,9.5811,1590698081,N
81,4197929,0.6102,1.9071,9.5713,5.8100,12.1800,3.7800,1001.2234,0.9656,1.7114,9.6078,1590698081,N
82,4197904,0.4187,2.3689,9.7412,10.4300,9.9400,-0.8400,1001.2228,0.7825,1.7947,9.6092,1590698081,N
82,4197895,0.3254,2.4215,9.5474,-10.7800,5.7400,-5.3200,1001.2224,0.6006,1.7000,9.6395,1590698081,N
82,4197849,0.0790,2.3593,9.5641,1.1900,5.3900,0.0700,1001.2227,0.4473,1.6850,9.6504,1590698082,N
82,4197955,0.1412,2.4359,9.5880,-4.3400,1.4700,0.4200,1001.2228,0.3668,1.6721,9.6561,1590698082,N
82,4197932,0.1101,2.1464,9.6168,-2.6600,2.8700,0.8400,1001.2226,0.2843,1.6097,9.6695,1590698082,N
82,4198003,-0.0144,2.2684,9.6407,-1.8200,0.9800,0.3500,1001.2225,0.2142,1.5800,9.6762,1590698082,N
82,4197967,0.0167,2.1153,9.6646,-1.2600,0.2100,-1.4000,1001.2215,0.1691,1.5611,9.6801,1590698082,N
82,4197995,0.0502,2.2325,9.6407,-1.2600,0.7700,-1.0500,1001.2204,0.1368,1.5569,9.6813,1590698082,N
82,4197970,0.0837,2.0674,9.6144,-0.1400,1.8200,-0.1400,1001.2189,0.1092,1.5164,9.6881,1590698082,N
82,4197925,0.0048,2.1631,9.6957,0.0700,1.9600,-0.9800,1001.2178,0.0697,1.4317,9.7013,1590698082,N
82,4197930,-0.0933,2.1990,9.6503,1.3300,4.3400,-0.6300,1001.2173,-0.0021,1.0707,9.7480,1590698082,N
82,4197995,-0.1555,2.2971,9.5809,-1.1900,2.8000,-1.9600,1001.2166,-0.0591,0.3500,9.8002,1590698082,N
82,4197938,-0.0598,2.0913,9.4038,-2.0300,0.6300,-0.6300,1001.2169,-0.0651,-0.1744,9.8049,1590698083,N
82,4197920,-0.0574,2.0841,9.5737,1.1900,0.0700,1.7500,1001.2165,-0.0612,-0.5788,9.7894,1590698083,N
82,4197910,-0.2249,2.2445,9.7244,0.9100,-0.7700,1.1200,1001.2164,-0.0692,4.8390,8.5293,1590698083,N
82,4198034,-0.1531,2.1918,9.5880,0.1400,-0.5600,-0.1400,1001.2154,-0.0898,3.3120,9.2300,1590698083,N
82,4197945,-0.0167,2.1751,9.6526,-0.4200,0.0700,-0.6300,1001.2146,-0.0769,3.1618,9.2826,1590698083,N
82,4197949,-0.0622,2.1942,9.6215,-1.6800,-0.4200,-0.3500,1001.2136,-0.0713,2.7910,9.4008,1590698083,N
82,4197921,-0.1149,2.1248,9.7077,-0.5600,0.1400,0.0700,1001.2130,-0.0812,2.5513,9.4686,1590698083,N
82,4198021,-0.1125,2.1679,9.6311,0.2800,-0.2100,0.2100,1001.2126,-0.0854,2.4081,9.5060,1590698083,N
82,4197925,-0.0455,2.1607,9.5761,-0.2800,-0.4900,0.4200,1001.2112,-0.0727,2.3205,9.5279,1590698083,N
82,4197864,0.0215,2.0722,9.6766,-0.2100,-0.0700,0.4900,1001.2109,-0.0526,2.3430,9.5225,1590698083,N
82,4197971,-0.0311,2.1081,9.5737,-0.1400,-0.1400,0.4900,1001.2105,-0.0466,2.3062,9.5315,1590698084,N
82,4197953,-0.0072,2.1416,9.7053,1.1200,0.9800,0.0700,1001.2098,-0.0470,2.5668,9.4647,1590698084,N
82,4198005,-0.0311,2.1368,9.5880,-0.4200,0.4200,-0.0700,1001.2079,-0.0474,2.5840,9.4600,1590698084,N
82,4197936,0.0694,2.1464,9.6383,0.4900,0.9100,-0.2100,1001.2059,-0.0311,3.4284,9.1878,1590698084,N
82,4197964,-0.0598,2.2014,9.5856,-0.4900,0.9100,-0.3500,1001.2045,-0.0450,3.0661,9.3149,1590698084,N
82,4197983,-0.0526,2.2062,9.6431,-0.4200,0.8400,-0.2100,1001.2037,-0.0538,2.9639,9.3479,1590698084,N
82,4197946,0.0479,2.1153,9.6742,0.6300,-0.2100,-0.2100,1001.2029,-0.0316,3.2763,9.2431,1590698084,N
82,4197988,0.0072,2.2636,9.6263,3.4300,-0.0700,0.7700,1001.2019,-0.0219,3.7655,9.0549,1590698084,N
82,4197996,-0.2321,2.1775,9.6024,1.3300,2.3100,0.3500,1001.2011,-0.0839,2.8371,9.3869,1590698084,N
82,4197945,-0.0287,1.9765,9.6120,-0.9800,-0.3500,1.7500,1001.2001,-0.0678,2.7834,9.4031,1590698084,N
82,4198005,-0.0120,2.2971,9.5617,2.3800,-0.3500,1.5400,1001.1984,-0.0521,2.8681,9.3777,1590698085,N
82,4197960,-0.1771,2.3809,9.6000,-1.6100,1.6800,1.0500,1001.1970,-0.0890,2.8540,9.3818,1590698085,N
82,4197996,-0.0957,2.0339,9.6455,-4.6200,2.2400,1.8900,1001.1966,-0.1062,2.9757,9.3437,1590698085,N
82,4197933,0.0287,2.0076,9.6790,-1.7500,1.6100,3.2200,1001.1956,-0.0852,3.7279,9.0700,1590698085,N
82,4198018,-0.0861,2.3043,9.7220,-1.2600,3.9200,1.6100,1001.1956,-0.1118,3.9503,8.9751,1590698085,N
82,4197950,-0.1842,2.0004,9.7292,-7.1400,2.9400,1.7500,1001.1956,-0.1504,3.3643,9.2103,1590698085,N
82,4197864,-0.0263,1.8066,9.7579,-4.5500,0.2800,3.0800,1001.1953,-0.1230,3.4653,9.1732,1590698085,N
82,4197992,-0.1388,1.9310,9.7795,0.0700,1.9600,2.5200,1001.1956,-0.1403,3.2320,9.2577,1590698085,N
82,4197930,-0.3446,1.8520,9.7627,0.6300,3.9200,2.4500,1001.1959,-0.2135,2.7740,9.4037,1590698085,N
82,4197968,-0.1364,1.7898,9.5713,-0.4200,2.9400,4.7600,1001.1964,-0.2176,2.8746,9.3733,1590698085,N
-3,4197950,-0.1364,1.8305,9.6909,3.7100,1.4700,2.6600,1001.1971,-0.2122,2.8396,9.3841,1590698086,N
-3,4198054,-0.4570,2.3689,9.7603,-2.8000,2.8700,-3.3600,1001.1973,-0.2838,2.5841,9.4558,1590698086,N
-3,4198029,-0.2895,1.5505,9.6239,-9.8700,0.2800,-2.4500,1001.1978,-0.2891,2.1721,9.5587,1590698086,N
-3,4197962,-0.3709,1.4668,9.9709,-2.8700,-1.1900,-2.0300,1001.1974,-0.2959,1.8651,9.6231,1590698086,N
-3,4197988,-0.2297,1.7300,9.6287,-13.7200,-3.8500,-5.5300,1001.1967,-0.2447,1.5664,9.6776,1590698086,N
-3,4198005,-0.0407,1.3711,9.7723,-3.0100,0.1400,0.0700,1001.1956,-0.2027,1.5251,9.6852,1590698086,N
-3,4198010,0.0335,1.3639,9.7484,0.2800,-1.6800,-0.4200,1001.1953,-0.1404,1.4473,9.6982,1590698086,N
-3,4197993,-0.2943,1.6558,9.6838,3.2900,1.4000,-0.7700,1001.1949,-0.1845,1.5732,9.6779,1590698086,N
-3,4198028,-0.5192,1.8209,10.0522,-1.8200,2.3100,0.3500,1001.1944,-0.2636,1.6673,9.6603,1590698086,N
-3,4197918,-0.3015,0.8303,9.3129,-8.8900,0.8400,-0.0700,1001.1936,-0.2814,1.3869,9.7040,1590698086,N
-3,4197960,-0.3446,1.4740,9.8848,3.8500,-0.8400,0.9100,1001.1936,-0.2875,1.4160,9.6996,1590698087,N
-3,4197992,-0.1412,1.6510,9.7196,1.9600,-1.5400,-1.1200,1001.1927,-0.2481,1.4324,9.6983,1590698087,N
-3,4197993,-0.1340,1.3735,9.8489,1.8200,-1.1900,-2.6600,1001.1914,-0.2170,1.3919,9.7049,1590698087,N
-3,4198025,-0.2704,1.5099,9.7843,2.8700,0.1400,-4.6900,1001.1902,-0.2339,1.4264,9.6995,1590698087,N
-3,4197926,-0.1795,1.6487,9.7340,4.2700,-2.1000,-2.6600,1001.1887,-0.2095,1.4329,9.6991,1590698087,N
-3,4197991,0.0096,1.2060,9.8776,-3.2200,-1.9600,2.1000,1001.1873,-0.1410,1.2913,9.7202,1590698087,N
-3,4198009,-0.0790,1.3663,9.6479,2.9400,-1.8200,3.9200,1001.1855,-0.1107,1.2618,9.7245,1590698087,N
-3,4197909,-0.3494,1.8736,9.6048,8.7500,3.1500,0.2100,1001.1849,-0.1898,1.6175,9.6705,1590698087,N
-3,4198005,-0.5001,2.1679,9.8943,6.3000,0.3500,1.2600,1001.1849,-0.2522,1.8142,9.6341,1590698087,N
-3,4197964,0.2273,1.5697,9.7771,0.9800,-2.1000,2.3100,1001.1846,-0.1321,1.7163,9.6544,1590698087,N
-3,4197937,0.0814,1.9430,9.7196,10.5700,-0.2100,2.4500,1001.1850,-0.0887,1.8224,9.6354,1590698088,N
-3,4197955,-0.2895,3.0508,9.5928,10.6400,-5.7400,-5.5300,1001.1848,-0.0840,1.7705,9.6451,1590698088,N
-3,4197891,-0.0861,2.3545,9.5186,-1.8900,-4.9000,-3.5700,1001.1843,-0.0440,1.4810,9.6941,1590698088,N
-3,4198060,0.3350,1.8401,9.6431,4.0600,-1.8900,3.2900,1001.1838,0.0556,-0.5460,9.7913,1590698088,N
-3,4198013,0.1531,2.4526,9.4995,3.6400,4.0600,3.7800,1001.1830,0.0403,3.8249,9.0299,1590698088,N
-3,4197978,0.0742,2.7613,9.5163,-0.2800,3.9200,3.4300,1001.1819,0.0185,1.8108,9.6380,1590698088,N
-3,4198036,0.0814,2.2516,9.3272,-12.9500,3.4300,-4.1300,1001.1802,-0.0046,0.9639,9.7592,1590698088,N
-3,4197906,-0.0957,2.6345,9.9135,-17.7800,-0.3500,-7.1400,1001.1786,-0.0244,2.9514,9.3520,1590698088,N
-3,4197943,0.5551,0.7753,9.4732,-15.2600,-8.8900,-1.8200,1001.1779,0.1985,1.6707,9.6612,1590698088,N
-3,4197895,0.6341,1.6319,9.6981,12.0400,-1.1900,3.6400,1001.1772,0.3055,1.7743,9.6400,1590698088,N
-3,4197971,0.0598,2.6225,9.6694,15.3300,-4.0600,0.5600,1001.1777,0.3074,2.1485,9.5635,1590698089,N
-3,4197970,0.2249,2.3139,9.4062,7.0700,-5.8100,0.5600,1001.1779,0.3464,2.4237,9.4961,1590698089,N
-3,4197900,-0.0048,2.5364,10.1456,-13.6500,-29.7500,-14.8400,1001.1785,0.4849,3.6151,9.1031,1590698089,N
-3,4197927,0.6820,3.0987,10.0116,-27.5800,-58.7300,-19.4600,1001.1798,0.8589,4.5013,8.6701,1590698089,N
-3,4197837,1.6678,0.7920,9.4947,-49.7700,-48.8600,-20.9300,1001.1810,1.4234,3.0026,9.2265,1590698089,N
-3,3256290,3.6969,1.1222,8.8654,-48.5800,-83.3700,-17.7100,1001.1827,2.3120,2.5389,9.1858,1590698089,N
-3,1874348,3.8859,0.4953,8.3605,-42.4900,-56.8400,-14.9800,1001.1846,6.8544,4.7588,5.1518,1590698089,N
-3,1841022,5.4413,-1.1509,7.4225,-82.0400,-54.4600,-31.0800,1001.1846,8.0919,3.8067,4.0251,1590698089,N
-3,1836346,7.8915,-2.4144,7.6546,-5.1100,-2.7300,-17.0100,1001.1844,8.4015,3.3189,3.8172,1590698089,N
-3,1844849,5.1613,-0.6150,7.7815,17.1500,6.0200,-8.6100,1001.1835,8.5102,2.5196,4.1712,1590698089,N
-3,1875623,6.3075,-0.3087,8.6070,4.5500,2.1700,6.7900,1001.1833,8.6418,1.8874,4.2341,1590698090,N
-3,1896227,6.0060,-0.8806,7.8030,-6.9300,-2.2400,5.6700,1001.1835,8.8238,1.2886,4.0806,1590698090,N
-3,1908489,6.3506,-1.1198,7.9274,3.9900,2.8000,1.1900,1001.1834,8.9033,0.8252,4.0275,1590698090,N
-3,1915915,5.5896,-0.6245,8.0949,7.0700,2.4500,-6.4400,1001.1832,8.8820,0.5810,4.1163,1590698090,N
-3,1921242,5.8337,-0.2847,8.3103,15.5400,-1.3300,-5.1800,1001.1834,8.9004,0.4850,4.0888,1590698090,N
-3,1922742,5.5394,-0.5192,8.1523,24.1500,9.5200,-4.2700,1001.1847,8.8089,0.3661,4.2941,1590698090,N
-3,1914231,5.2786,0.3159,8.6453,18.6900,11.4100,-3.8500,1001.1864,3.9148,0.2241,8.9886,1590698090,N
-3,1909948,5.4317,0.6508,8.5065,13.7200,12.8800,1.9600,1001.1880,4.7027,0.4064,8.5959,1590698090,N
-3,1909390,5.4174,0.4834,8.1523,13.3700,2.6600,-0.1400,1001.1898,5.2378,0.5148,8.2747,1590698090,N
-3,1904406,5.2068,-0.0742,9.3320,17.7800,15.4700,6.2300,1001.1913,5.7831,0.4819,7.9053,1590698090,N
-3,1899301,4.6445,1.0457,8.6189,7.7000,11.3400,2.6600,1001.1921,5.5169,0.6377,8.0826,1590698091,N
-3,1897858,4.9268,0.5815,8.8199,7.2800,14.2800,5.3200,1001.1928,5.5150,0.6491,8.0830,1590698091,N
-3,1902172,4.2640,0.8231,8.6644,17.1500,11.1300,-1.8200,1001.1931,5.3790,0.8038,8.1603,1590698091,N
-3,1907417,4.5224,1.3113,8.6620,8.8200,0.4200,-1.6800,1001.1929,5.1963,0.9707,8.2599,1590698091,N
-3,1913504,4.5129,1.2443,8.7745,10.0800,3.0100,0.5600,1001.1937,5.1103,1.0883,8.2989,1590698091,N
-3,1914793,4.6588,1.7085,8.4419,6.5800,1.0500,-5.3200,1001.1943,4.9791,1.2714,8.3524,1590698091,N
-3,1915028,4.4722,1.6391,8.6094,9.5900,0.3500,-5.3200,1001.1947,4.8936,1.4253,8.3781,1590698091,N
-3,1913787,4.4722,2.0076,8.7051,7.6300,6.0900,7.4900,1001.1954,4.8374,1.5599,8.3867,1590698091,N
-3,1911053,4.2568,2.0267,8.9013,3.3600,16.3100,4.3400,1001.1957,4.5972,1.6440,8.5049,1590698091,N
-3,1908777,3.8692,2.1966,8.9611,-0.4900,12.9500,-0.9100,1001.1962,4.2876,1.7364,8.6471,1590698091,N
-3,1909327,4.1037,1.4405,8.5472,-4.3400,3.5000,-0.6300,1001.1972,4.2062,1.6511,8.7036,1590698092,N
-3,1909937,3.7663,1.8090,8.8271,8.3300,7.1400,-3.1500,1001.1977,4.1026,1.7462,8.7344,1590698092,N
-3,1916339,3.6969,2.2205,8.8917,3.7100,-1.3300,-3.7100,1001.1983,4.0205,1.8756,8.7457,1590698092,N
-3,1930410,4.0678,1.9119,8.9180,-3.9900,-8.4700,3.4300,1001.1987,4.0699,1.8488,8.7286,1590698092,N
-3,1940283,3.8692,1.9860,9.0544,-0.1400,-0.7000,3.2200,1001.1988,4.0275,1.8592,8.7460,1590698092,N
-3,2002074,3.7687,1.6439,9.2315,-0.7000,-1.2600,6.7200,1001.1986,3.9916,1.7871,8.7775,1590698092,N
-3,1953289,4.3406,1.8066,8.6357,3.3600,-1.4700,-0.3500,1001.1989,4.0944,1.8183,8.7235,1590698092,N
-3,1943542,4.5655,1.8449,8.8487,13.4400,-0.0700,-5.7400,1001.1995,4.2290,1.9261,8.6358,1590698092,N
-3,1940840,4.2162,2.2349,8.9180,6.5100,0.4900,-3.2200,1001.1996,4.2221,2.0292,8.6155,1590698092,N
-3,1936252,3.5773,2.2828,8.8726,2.3100,5.8100,1.6800,1001.2000,4.0571,2.0864,8.6809,1590698092,N
-3,1933251,4.0487,1.8520,8.9157,-4.0600,3.5700,5.1800,1001.2012,4.0126,1.9852,8.7251,1590698093,N
-3,1926297,4.0391,2.0554,8.8582,-2.3800,9.0300,4.2000,1001.2018,3.9356,1.9516,8.7677,1590698093,N
-3,1922297,3.8931,2.0698,8.8487,-2.3100,3.2900,2.3100,1001.2017,3.8875,1.9436,8.7909,1590698093,N
-3,1921726,3.4720,2.3091,9.0568,0.0700,5.1800,-3.3600,1001.2021,3.7316,2.0106,8.8433,1590698093,N
-3,1923604,3.8429,1.4836,8.8271,-9.6600,6.7900,-2.4500,1001.2021,3.6326,1.8277,8.9238,1590698093,N
-3,1926678,3.4409,1.9238,9.0975,-0.9100,2.1700,1.1900,1001.2021,3.5662,1.8297,8.9501,1590698093,N
-3,1928615,3.6395,1.6941,9.0544,-6.8600,1.8900,2.1700,1001.2022,3.5185,1.7374,8.9873,1590698093,N
-3,1928821,3.8285,1.6152,8.8630,-4.5500,-2.5200,3.7100,1001.2026,3.5819,1.6746,8.9742,1590698093,N
-3,1924814,3.5773,1.7803,9.0281,6.9300,6.7200,1.6100,1001.2026,3.5778,1.7330,8.9647,1590698093,N
-3,1923625,3.2925,2.1296,9.6550,0.8400,1.1200,2.8700,1001.2023,3.4841,1.7875,8.9909,1590698093,N
-3,1922125,3.9577,1.1940,8.7075,-6.2300,2.7300,5.0400,1001.2018,3.5393,1.6121,9.0025,1590698094,N
-3,1920973,3.5342,1.6295,8.8415,7.1400,4.6200,1.3300,1001.2013,3.5710,1.6662,8.9801,1590698094,N
-3,1917374,3.0078,2.1918,9.1741,5.1100,1.2600,-0.5600,1001.2001,3.4659,1.8084,8.9938,1590698094,N
-3,1913935,3.0221,2.2205,9.3655,3.7800,4.1300,-7.2100,1001.1993,3.3168,1.9178,9.0272,1590698094,N
-3,1910845,3.4193,1.9669,9.0616,1.3300,2.1000,-10.7100,1001.1985,3.2862,1.9542,9.0306,1590698094,N
0,1908063,3.8189,1.2754,9.1860,-6.2300,-0.8400,-3.7100,1001.1982,3.3287,1.7749,9.0521,1590698094,N
82,1906747,3.8357,1.0265,8.8750,-0.4900,-4.3400,6.9300,1001.1987,3.4890,1.6178,9.0211,1590698094,N
82,1907282,3.3069,2.3378,9.2387,8.0500,-2.5900,8.6800,1001.1995,3.5467,1.7963,8.9646,1590698094,N
81,1906806,2.8594,2.6297,9.3081,5.2500,7.1400,2.5200,1001.1995,3.3667,1.9724,8.9969,1590698094,N
82,1906240,3.4193,1.8329,9.1143,-9.7300,3.1500,2.5900,1001.2001,3.2925,1.8523,9.0498,1590698094,N
82,1902484,3.7974,1.0528,8.8965,-8.0500,0.7000,7.3500,1001.2011,3.3596,1.6164,9.0703,1590698095,N
81,1900398,3.4361,1.6630,9.1956,4.2700,3.2900,4.7600,1001.2020,3.3870,1.6391,9.0561,1590698095,N
82,1903995,3.1250,1.8688,9.2052,2.5900,0.3500,-0.7000,1001.2021,3.3389,1.7035,9.0620,1590698095,N
82,1908935,3.3547,1.8544,9.3799,-0.7000,2.9400,1.6100,1001.2029,3.2960,1.7075,9.0770,1590698095,N
82,1929830,3.3954,1.2203,8.9850,-2.4500,2.7300,4.2700,1001.2034,3.3022,1.5805,9.0977,1590698095,N
82,2016584,3.1968,1.5051,9.2363,5.3900,-0.2100,-2.4500,1001.2035,3.3098,1.6113,9.0895,1590698095,N
82,2126745,3.3332,1.8712,9.3200,5.3900,-4.3400,-2.1700,1001.2036,3.3632,1.7077,9.0522,1590698095,N
82,2075663,3.3069,1.6558,9.0855,-2.6600,-0.6300,-3.0100,1001.2031,3.3269,1.6836,9.0702,1590698095,N
82,1956166,3.3188,1.8664,9.3464,-4.8300,-7.3500,-3.4300,1001.2025,3.3216,1.6917,9.0706,1590698095,N
81,1921059,3.4146,1.4381,8.8893,-1.0500,-0.4200,-7.4900,1001.2020,3.3217,1.6545,9.0774,1590698095,N
82,1899483,3.6778,1.9143,9.3129,-4.9000,-6.5100,-3.2900,1001.2018,3.3746,1.6722,9.0546,1590698096,N
82,1891379,4.0128,1.4907,8.8941,-0.2100,0.4900,0.2800,1001.2021,3.4832,1.6340,9.0204,1590698096,N
82,1893629,3.4720,1.9214,9.2291,3.7100,0.7700,1.3300,1001.2028,3.4909,1.7077,9.0038,1590698096,N
83,1901040,3.4217,1.5266,9.1047,-3.7800,0.5600,0.2800,1001.2030,3.4433,1.6383,9.0349,1590698096,N
83,1901325,3.5797,1.3352,9.0042,-2.7300,-0.0700,0.2800,1001.2030,3.4511,1.5558,9.0465,1590698096,N
83,1898948,3.5797,1.6104,9.0233,0.6300,-1.3300,-0.2800,1001.2021,3.4892,1.5735,9.0288,1590698096,N
84,1898009,3.5486,1.7468,8.9539,0.8400,1.5400,-0.2800,1001.2010,3.4960,1.6136,9.0191,1590698096,N
84,1903341,3.5749,1.5960,9.1789,1.3300,3.5000,0.2800,1001.2003,3.4815,1.6087,9.0256,1590698096,N
84,1900624,3.7280,1.5625,9.2267,-1.1900,1.6100,2.6600,1001.1991,3.4983,1.5738,9.0253,1590698096,N
84,1891830,3.5821,1.4357,8.9492,-2.2400,4.5500,3.3600,1001.1984,3.4766,1.5163,9.0435,1590698096,N
84,1889768,3.2614,1.7228,9.1406,5.3200,4.3400,3.3600,1001.1984,3.4481,1.5845,9.0427,1590698097,N
84,1891515,3.2423,1.8879,9.1956,-1.0500,3.0800,-1.8900,1001.1991,3.3549,1.6310,9.0694,1590698097,N
84,1888643,3.5127,1.2730,9.1190,3.5700,3.8500,0.5600,1001.1998,3.3830,1.5794,9.0681,1590698097,N
84,1893768,4.2544,0.9643,9.1382,25.2700,10.6400,-2.1700,1001.2010,3.6368,1.6426,8.9580,1590698097,N
84,2192664,2.9408,3.3882,9.2842,28.4200,33.4600,-21.4200,1001.2021,3.2655,2.1471,8.9943,1590698097,N
85,3222690,1.6247,3.3069,9.0544,5.8800,28.0000,-24.8500,1001.2030,2.6021,2.3908,9.1479,1590698097,N
85,2856591,0.9787,3.0245,9.2028,-2.4500,15.1900,-20.3700,1001.2036,2.0476,2.4712,9.2666,1590698097,N
85,2994689,1.3711,2.5842,9.3392,-10.2900,-2.9400,-19.2500,1001.2040,1.8491,2.4534,9.3130,1590698097,N
85,3233742,1.5051,2.3186,9.2148,-4.6900,-0.4200,-8.6800,1001.2049,1.7557,2.4156,9.3409,1590698097,N
85,3729869,1.4572,2.3833,9.2674,-2.3800,-3.5700,5.6700,1001.2057,1.7316,2.4020,9.3489,1590698097,N
85,4197856,1.7348,2.1942,9.3655,-2.9400,-7.0000,18.1300,1001.2059,1.8171,2.3338,9.3500,1590698098,N
85,4197881,2.3282,2.6345,9.2794,10.2900,-1.1900,16.1000,1001.2062,1.9877,2.4499,9.2853,1590698098,N
85,4197995,1.8664,3.3500,9.3488,1.6800,3.0100,-1.1900,1001.2070,1.9363,2.6013,9.2549,1590698098,N
85,4197946,1.7683,2.7206,9.3057,-3.9200,-0.9800,-3.9900,1001.2084,1.8891,2.6025,9.2644,1590698098,N
85,4197864,1.8162,2.4646,9.4181,-3.2200,0.1400,-1.0500,1001.2095,1.8586,2.5446,9.2866,1590698098,N
85,4197830,1.8520,2.2851,9.3775,1.1900,3.4300,0.1400,1001.2098,1.8323,2.4833,9.3084,1590698098,N
85,4197941,1.6463,2.6608,9.4205,3.7800,3.2900,2.1700,1001.2097,1.7778,2.5212,9.3088,1590698098,N
85,4197914,1.7468,2.6321,9.3392,0.0700,-1.6100,2.5200,1001.2097,1.7881,2.5433,9.3008,1590698098,N
85,4197910,1.7994,2.6010,9.3942,-0.3500,0.9100,1.8200,1001.2089,1.7812,2.5369,9.3039,1590698098,N
85,4197856,1.7659,2.6441,9.3631,-0.2100,0.5600,0.4900,1001.2082,1.7708,2.5475,9.3029,1590698098,N
85,4197848,1.7970,2.5938,9.3081,-0.9100,-0.2100,0.4900,1001.2077,1.7754,2.5477,9.3020,1590698099,N
85,4198028,1.7827,2.4694,9.3703,-1.0500,-0.7000,0.8400,1001.2070,1.7798,2.5227,9.3080,1590698099,N
85,4197891,1.8377,2.5627,9.4325,-2.0300,-0.9100,1.9600,1001.2068,1.7919,2.5065,9.3100,1590698099,N
85,4197900,1.8879,2.1942,9.3607,-3.6400,-4.5500,3.1500,1001.2063,1.8461,2.4286,9.3201,1590698099,N
85,4197842,1.8712,2.5603,9.2459,-3.0100,-3.3600,2.8700,1001.2064,1.8772,2.4416,9.3105,1590698099,N
85,4197855,1.8808,2.6297,9.6622,-12.3900,-8.3300,4.4100,1001.2069,1.9055,2.3862,9.3191,1590698099,N
85,4197903,2.1775,2.0459,9.2674,-9.1000,-5.5300,2.3800,1001.2079,1.9831,2.2603,9.3343,1590698099,N
85,4197900,2.2588,2.1344,9.2387,-3.6400,-4.8300,2.3100,1001.2080,2.0702,2.2214,9.3247,1590698099,N
85,4197997,2.2708,2.1009,9.3320,2.3800,-2.8700,0.3500,1001.2081,2.1400,2.2259,9.3078,1590698099,N
85,4197840,2.4383,2.1081,9.2794,13.7200,6.3700,-0.9100,1001.2078,2.1910,2.2930,9.2797,1590698099,N
85,4197872,2.4335,2.3545,9.1717,12.3900,0.8400,3.6400,1001.2062,2.2869,2.4005,9.2292,1590698100,N
85,4197870,1.9597,2.4455,9.3344,-6.6500,-14.9100,5.1800,1001.2060,2.3298,2.4011,9.2183,1590698100,N
85,3181379,2.5196,2.7422,9.1860,-4.1300,-8.0500,2.1700,1001.2060,2.4202,2.4557,9.1805,1590698100,N
85,3259913,2.7422,2.4024,9.1310,-1.1200,-5.3900,0.7700,1001.2059,2.5233,2.4533,9.1534,1590698100,N
86,2924421,2.6297,2.4814,9.3153,1.4700,-2.0300,-0.7700,1001.2062,2.5548,2.4708,9.1399,1590698100,N
86,2562746,2.8403,2.3617,9.2554,4.1300,-2.8700,-3.1500,1001.2059,2.6334,2.4929,9.1116,1590698100,N
86,2195587,2.6919,2.9025,9.1214,9.5900,-1.0500,-0.9800,1001.2043,2.6805,2.6511,9.0530,1590698100,N
87,1970013,2.8259,2.7230,9.1430,4.6200,-0.1400,-2.4500,1001.2031,2.7129,2.7020,9.0283,1590698100,N
86,1932693,2.8786,2.6824,9.1262,3.0800,1.0500,1.2600,1001.2025,2.7440,2.7093,9.0167,1590698100,N
87,1934939,2.7517,2.6871,9.0712,0.2800,0.4200,1.7500,1001.2026,2.7451,2.6988,9.0195,1590698100,N
87,1915577,2.8738,2.7182,9.1717,-0.9100,1.5400,1.8200,1001.2028,2.7493,2.6757,9.0251,1590698101,N
87,1900620,2.5771,2.9456,9.0879,2.5200,6.7900,-3.6400,1001.2030,2.6547,2.7294,9.0374,1590698101,N
87,1904341,2.7254,2.6776,9.1190,0.1400,2.1000,-4.1300,1001.2032,2.6374,2.7185,9.0457,1590698101,N
87,2000317,2.4335,2.9456,8.9827,1.3300,-3.0800,1.6100,1001.2031,2.6323,2.7841,9.0272,1590698101,N
87,4197813,2.9192,2.8594,9.1167,-7.6300,-11.5500,0.4200,1001.2029,2.7472,2.7682,8.9978,1590698101,N
87,4197855,3.0317,2.3354,9.2411,-5.8100,-1.9600,1.4700,1001.2027,2.7915,2.6259,9.0268,1590698101,N
87,4197947,3.0820,2.5149,9.2243,2.2400,1.6100,5.7400,1001.2021,2.8440,2.5898,9.0208,1590698101,N
87,4197862,2.9288,2.8235,9.1908,3.8500,2.3800,4.6900,1001.2024,2.8548,2.6344,9.0045,1590698101,N
87,4010208,2.7302,2.6991,9.0042,2.1700,3.5700,0.2800,1001.2020,2.8106,2.6536,9.0127,1590698101,N
87,3124039,2.8953,2.5747,9.0162,2.0300,0.2100,-2.1700,1001.2018,2.8275,2.6586,9.0060,1590698101,N
87,2486855,2.8642,2.4790,8.9420,4.1300,1.6800,-1.5400,1001.2009,2.8388,2.6591,9.0023,1590698102,N
87,2073925,2.9384,2.7565,9.2985,7.3500,-1.0500,2.3100,1001.1998,2.8822,2.7174,8.9710,1590698102,N
87,1927296,2.8020,3.0126,8.9372,1.0500,2.6600,-0.2800,1001.1985,2.8462,2.7736,8.9653,1590698102,N
87,1914651,2.9049,2.6177,9.0305,-2.1700,-2.3800,-2.1700,1001.1977,2.8617,2.7365,8.9717,1590698102,N
87,1910130,2.9384,2.5436,8.9659,-0.4200,1.7500,0.0700,1001.1971,2.8641,2.6905,8.9849,1590698102,N
87,1905920,2.8881,3.0341,8.9874,3.2900,2.8700,-3.4300,1001.1965,2.8430,2.7773,8.9652,1590698102,N
87,1913743,2.6895,2.9767,8.9635,-1.9600,-0.4200,-6.8600,1001.1951,2.7899,2.8193,8.9688,1590698102,N
87,2379485,2.7350,2.6512,8.8534,-6.9300,-2.0300,0.4900,1001.1940,2.7821,2.7448,8.9942,1590698102,N
87,4197807,2.6967,2.7326,9.0329,-3.3600,-3.3600,4.3400,1001.1928,2.7909,2.7152,9.0005,1590698102,N
87,4197755,3.1681,2.6704,9.1693,-0.9800,-2.4500,1.4700,1001.1925,2.8691,2.6897,8.9835,1590698102,N
87,4197841,3.0820,2.5555,8.9133,-1.9600,-2.7300,0.9100,1001.1923,2.9302,2.6555,8.9740,1590698103,N
87,4197855,3.1848,2.5292,9.2554,2.8000,1.3300,1.6100,1001.1918,2.9661,2.6288,8.9701,1590698103,N
87,4197849,2.9169,2.6776,9.1095,2.8000,3.8500,1.9600,1001.1916,2.9338,2.6375,8.9781,1590698103,N
87,3551091,2.9312,2.4526,8.8678,4.6200,3.5700,0.2800,1001.1917,2.9327,2.6334,8.9797,1590698103,N
88,2626853,2.9336,2.9551,8.8176,8.6100,-1.2600,-0.4200,1001.1924,2.9789,2.7735,8.9221,1590698103,N
89,2151709,3.1657,2.9336,8.8223,2.1700,-1.2600,-2.0300,1001.1923,3.0280,2.8310,8.8875,1590698103,N
88,1971637,2.6943,2.9934,8.9420,-0.7700,0.9800,-1.5400,1001.1920,2.9449,2.8586,8.9065,1590698103,N
88,1910042,2.7374,3.1992,8.9396,-2.3800,2.0300,-0.8400,1001.1920,2.8728,2.8974,8.9175,1590698103,N
89,1886830,2.9671,2.8403,8.8846,0.5600,1.8900,-4.1300,1001.1916,2.8684,2.8962,8.9193,1590698103,N
89,1880059,2.9288,2.8092,8.9324,3.2200,3.1500,-1.3300,1001.1916,2.8626,2.8972,8.9209,1590698103,N
89,1899695,2.2756,3.3165,8.9970,-5.1800,-3.9200,2.0300,1001.1920,2.7612,2.9454,8.9370,1590698104,N
89,3436628,3.0030,2.9121,8.9827,-11.6900,-9.2400,-0.6300,1001.1926,2.8370,2.8741,8.9365,1590698104,N
89,4197897,3.6897,2.3402,8.9396,-10.5000,-0.7700,-4.4100,1001.1935,2.9467,2.6934,8.9573,1590698104,N
89,4197917,3.2542,2.4909,9.0066,-0.8400,5.1800,-1.7500,1001.1942,2.9506,2.6288,8.9752,1590698104,N
89,4197967,2.8690,2.3019,9.0616,6.4400,0.7000,3.9900,1001.1945,2.9669,2.6025,8.9775,1590698104,N
89,3070334,3.0221,2.8116,8.8917,3.7100,2.5200,6.7200,1001.1946,2.9913,2.6494,8.9556,1590698104,N
89,2704941,3.1537,2.5627,8.9228,-2.3800,-1.4000,1.6100,1001.1946,3.0301,2.6136,8.9531,1590698104,N
89,2266171,3.1466,2.7230,9.4780,-3.6400,1.0500,1.5400,1001.1954,3.0014,2.5708,8.9751,1590698104,N
89,1952821,2.5507,1.8999,8.6548,0.5600,5.5300,1.9600,1001.1959,2.9111,2.4430,9.0403,1590698104,N
89,1926659,2.9599,2.6177,9.0185,-1.9600,0.7000,-3.3600,1001.1962,2.8958,2.4656,9.0391,1590698104,N
89,1909064,2.8020,2.6800,9.1214,0.2800,-5.6700,-2.5200,1001.1967,2.9119,2.5285,9.0165,1590698105,N
89,1899333,3.2518,2.5364,9.2363,6.9300,5.6000,-3.2900,1001.1970,2.9332,2.5620,9.0002,1590698105,N
89,1906672,2.7135,3.0054,9.0090,7.1400,6.4400,-4.2000,1001.1973,2.8498,2.6922,8.9889,1590698105,N
89,1925020,2.9264,3.0796,8.9420,0.1400,6.9300,-6.7200,1001.1979,2.7873,2.7574,8.9888,1590698105,N
89,2131085,2.4024,2.7805,8.9611,-6.0200,-1.4700,4.0600,1001.1983,2.7155,2.7162,9.0232,1590698105,N
88,3217712,2.6010,2.7637,9.0066,-4.7600,-5.4600,2.3800,1001.1981,2.7277,2.7022,9.0238,1590698105,N
88,4197766,2.9408,2.5220,9.0018,-1.8900,-9.4500,4.1300,1001.1993,2.8506,2.6726,8.9945,1590698105,N
89,2356024,2.6895,2.7494,8.4993,6.3700,7.4200,10.5000,1001.2002,2.8376,2.7160,8.9857,1590698105,N
88,1955033,3.3930,2.9815,9.3631,1.2600,0.7000,-1.7500,1001.1997,2.9044,2.7492,8.9542,1590698105,N
88,1941896,2.6154,2.8977,8.8869,1.6100,5.6000,-5.1800,1001.1990,2.7979,2.7922,8.9747,1590698105,N
88,3142320,2.8762,2.7541,8.6166,-0.8400,6.9300,-4.6900,1001.1990,2.7614,2.7847,8.9884,1590698106,N
88,4197828,3.1872,2.4814,9.0568,4.0600,0.0700,2.5900,1001.1989,2.8611,2.7458,8.9691,1590698106,N
88,2883271,2.2325,3.0078,8.9085,4.5500,3.7800,7.0700,1001.1986,2.7427,2.8140,8.9850,1590698106,N
88,1989714,2.8834,2.9121,9.1382,2.8000,1.9600,-1.8200,1001.1984,2.7478,2.8416,8.9747,1590698106,N
88,2132792,2.5579,3.1274,8.7386,3.3600,8.6100,-6.9300,1001.1985,2.6429,2.9214,8.9806,1590698106,N
88,4048604,2.7254,2.6345,8.9300,1.1900,8.1200,-7.2100,1001.1984,2.5858,2.8677,9.0145,1590698106,N
88,4197896,2.3091,3.0437,9.3440,0.4900,-0.2100,4.5500,1001.1981,2.5297,2.8788,9.0268,1590698106,N
88,2955953,2.2660,2.7302,9.0544,1.4700,-3.5700,6.7900,1001.1989,2.5303,2.8633,9.0316,1590698106,N
88,2826904,2.5053,3.3141,9.1669,-2.8000,-2.1000,-2.6600,1001.1993,2.5150,2.9267,9.0155,1590698106,N
88,4197880,2.4670,3.1944,8.9922,-4.0600,3.2900,-7.0000,1001.1996,2.4479,2.9479,9.0271,1590698106,N
88,4197887,2.5340,2.8068,9.2291,-0.9800,3.2900,0.9100,1001.2006,2.4296,2.8859,9.0520,1590698107,N
88,4197986,2.3067,2.6441,9.0329,2.0300,6.3700,6.6500,1001.2013,2.3812,2.8170,9.0865,1590698107,N
88,4197816,2.3210,3.1681,9.3105,1.5400,3.2900,7.0700,1001.2019,2.3503,2.8478,9.0850,1590698107,N
88,2701027,2.3019,3.0341,9.0736,-0.5600,2.8000,1.3300,1001.2018,2.3176,2.8616,9.0890,1590698107,N
89,2484097,2.4622,2.8786,9.2195,-3.7100,0.7000,0.0700,1001.2017,2.3218,2.8222,9.1003,1590698107,N
89,2519009,2.2373,2.8427,9.1286,-2.0300,2.9400,1.6800,1001.2018,2.2777,2.7915,9.1209,1590698107,N
89,2449015,2.1846,2.7613,9.2626,-0.2800,1.4000,1.0500,1001.2024,2.2442,2.7686,9.1361,1590698107,N
89,2392992,2.2229,2.8068,9.2052,-0.8400,0.4200,0.2100,1001.2025,2.2311,2.7627,9.1411,1590698107,N
89,2248450,2.3330,2.6656,9.1573,0.0700,1.6100,-0.2100,1001.2023,2.2377,2.7368,9.1473,1590698107,N
89,2240499,2.2205,2.9336,9.2339,-3.2900,-1.8200,0.1400,1001.2027,2.2338,2.7482,9.1448,1590698107,N
89,2308453,2.3091,2.5723,9.0353,-1.2600,3.0100,-0.5600,1001.2024,2.2255,2.6975,9.1619,1590698108,N
89,2480443,2.0913,2.7709,9.2626,0.8400,-0.5600,0.8400,1001.2026,2.2038,2.7150,9.1620,1590698108,N
90,4109610,2.4861,2.6871,9.3799,-0.7000,-1.3300,0.7000,1001.2026,2.2575,2.6943,9.1551,1590698108,N
90,4197906,2.1751,2.7350,9.1525,-2.2400,2.1000,-1.4700,1001.2030,2.2140,2.6786,9.1703,1590698108,N
90,4197837,2.2756,2.5890,9.2985,-1.1200,0.2800,0.4200,1001.2036,2.2166,2.6432,9.1799,1590698108,N
90,4197794,2.3186,2.5914,9.1621,0.1400,1.4000,1.0500,1001.2037,2.2284,2.6257,9.1821,1590698108,N
90,4143133,2.2493,2.5316,9.2554,1.2600,2.6600,-0.0700,1001.2045,2.2123,2.6034,9.1923,1590698108,N
90,3950493,2.2421,2.6608,9.2004,0.4200,2.2400,-0.0700,1001.2042,2.1996,2.6071,9.1943,1590698108,N
91,3847805,2.0961,2.7757,9.2650,-1.2600,-1.6800,0.1400,1001.2036,2.1853,2.6320,9.1906,1590698108,N
90,3839021,2.2636,2.6010,9.2961,-1.6100,-1.7500,-1.6100,1001.2028,2.2021,2.6184,9.1905,1590698108,N
90,3762558,2.2445,2.4909,9.1286,1.3300,0.9800,0.4200,1001.2030,2.2114,2.6027,9.1927,1590698109,N
90,3753675,2.3163,2.5938,9.1119,0.1400,-2.1000,1.6800,1001.2032,2.2563,2.6102,9.1797,1590698109,N
91,3640845,2.3163,2.7159,9.3512,1.1200,3.9900,-0.7000,1001.2034,2.2280,2.6141,9.1855,1590698109,N
90,3369994,2.2014,2.6728,9.1884,0.0700,-0.7700,-0.7000,1001.2031,2.2272,2.6307,9.1809,1590698109,N
91,3281227,2.3043,2.5962,9.2578,-0.1400,-0.2800,0.7700,1001.2025,2.2424,2.6178,9.1809,1590698109,N
89,3276879,2.2588,2.6225,9.1980,1.6100,2.3100,-0.1400,1001.2018,2.2305,2.6213,9.1828,1590698109,N
90,3212364,2.1320,2.8116,9.2315,-1.6100,-1.3300,-0.1400,1001.2015,2.2133,2.6474,9.1795,1590698109,N
90,3159491,2.3545,2.5268,9.2746,-1.8900,-0.8400,-1.1900,1001.2014,2.2358,2.6094,9.1849,1590698109,N
90,3144445,2.2229,2.5819,9.1717,0.6300,-0.4200,1.8900,1001.2006,2.2438,2.6076,9.1835,1590698109,N
88,3217875,2.4766,2.6991,9.2626,0.3500,0.5600,-0.4200,1001.2003,2.2780,2.6196,9.1716,1590698109,N
89,2935498,2.1535,2.6369,9.2267,-0.4200,1.2600,-0.1400,1001.2010,2.2397,2.6132,9.1829,1590698110,N
89,2820960,2.3641,2.5484,9.2674,0.7700,0.5600,0.6300,1001.2012,2.2595,2.5980,9.1823,1590698110,N
91,2817596,2.3402,2.5531,9.2507,1.1200,1.1200,-0.0700,1001.2020,2.2665,2.5902,9.1828,1590698110,N
89,2810357,2.1966,2.7517,9.2818,2.8000,4.1300,1.0500,1001.2029,2.2244,2.6186,9.1851,1590698110,N
90,2839579,2.1248,2.8810,9.2507,-2.5200,0.9100,-2.1000,1001.2034,2.1799,2.6433,9.1887,1590698110,N
91,2742279,2.1799,2.4550,9.1932,-2.1700,-1.3300,-2.8700,1001.2042,2.1804,2.6024,9.2002,1590698110,N
90,2697835,2.3450,2.4909,9.2794,-2.1700,-1.6800,1.6100,1001.2051,2.2198,2.5612,9.2023,1590698110,N
91,2656265,2.3856,2.6369,9.2315,1.6100,1.8900,1.0500,1001.2055,2.2405,2.5749,9.1935,1590698110,N
91,2506792,2.1344,2.7589,9.2291,0.0700,-1.0500,1.4700,1001.2056,2.2289,2.6098,9.1865,1590698110,N
91,2494372,2.3067,2.6536,9.2195,-1.0500,-0.7000,0.9100,1001.2062,2.2460,2.6074,9.1830,1590698110,N
91,2491152,2.3019,2.5125,9.1932,-2.4500,-2.1700,-1.1900,1001.2063,2.2648,2.5802,9.1861,1590698111,N
91,2500452,2.4455,2.6345,9.2291,-1.4000,0.5600,-0.2100,1001.2065,2.2861,2.5726,9.1829,1590698111,N
91,2446299,2.3928,2.5340,9.2315,-0.2100,0.1400,-0.0700,1001.2061,2.3024,2.5595,9.1825,1590698111,N
92,2493513,2.2780,2.5603,9.3009,-0.6300,0.9100,-0.7000,1001.2061,2.2815,2.5469,9.1912,1590698111,N
91,2521094,2.3330,2.5914,9.3224,-0.9800,0.4200,-0.3500,1001.2056,2.2774,2.5390,9.1944,1590698111,N
92,2454211,2.2947,2.4814,9.2124,-0.7700,0.5600,0.0700,1001.2055,2.2735,2.5181,9.2011,1590698111,N
91,2365159,2.4311,2.5292,9.1358,-0.4200,0.9100,-0.6300,1001.2062,2.2955,2.5160,9.1963,1590698111,N
91,2290625,2.2684,2.5029,9.2674,0.6300,1.4700,0.4200,1001.2064,2.2783,2.5087,9.2025,1590698111,N
91,2316914,2.3258,2.5723,9.2889,0.2100,3.5700,-1.2600,1001.2066,2.2510,2.5056,9.2101,1590698111,N
91,2316507,2.2493,2.5579,9.3320,0.2800,-0.1400,-0.2100,1001.2064,2.2465,2.5129,9.2092,1590698111,N
92,2388566,2.4120,2.3569,9.2818,0.5600,-0.2100,0.3500,1001.2064,2.2809,2.4832,9.2088,1590698112,N
92,2442817,2.2373,2.6441,9.3368,-0.2800,0.4200,0.7000,1001.2060,2.2625,2.5014,9.2084,1590698112,N
92,2474464,2.3067,2.5125,9.2770,-0.9800,-1.4700,0.5600,1001.2061,2.2778,2.4963,9.2060,1590698112,N
91,2405847,2.3545,2.5244,9.2291,-0.4200,-0.5600,0.5600,1001.2059,2.2953,2.4971,9.2015,1590698112,N
91,2303395,2.3569,2.4215,9.2435,0.1400,1.2600,-0.7700,1001.2055,2.2943,2.4780,9.2068,1590698112,N
91,2240107,2.2588,2.5316,9.3153,1.5400,1.0500,1.1200,1001.2045,2.2813,2.4893,9.2070,1590698112,N
91,2259283,2.3402,2.5388,9.2722,0.1400,-0.2800,0.5600,1001.2036,2.2930,2.4957,9.2024,1590698112,N
91,2295499,2.3737,2.5651,9.2339,0.5600,0.7700,-0.5600,1001.2031,2.3003,2.5090,9.1969,1590698112,N
90,2368141,2.3115,2.6608,9.2411,0.4200,1.1200,-0.2100,1001.2028,2.2905,2.5340,9.1925,1590698112,N
91,2460108,2.3593,2.5125,9.2578,1.1200,1.6800,-0.6300,1001.2023,2.2893,2.5300,9.1939,1590698112,N
90,2627949,2.1727,2.6489,9.2722,1.2600,3.0800,-0.7700,1001.2025,2.2393,2.5488,9.2011,1590698113,N
90,2768069,2.2995,2.5819,9.2315,0.6300,4.4100,-1.3300,1001.2023,2.2115,2.5424,9.2095,1590698113,N
88,2557897,2.1631,2.5316,9.2219,0.7000,-1.8900,3.0800,1001.2025,2.2265,2.5471,9.2046,1590698113,N
89,3300758,2.3856,2.6201,9.3009,-5.3900,-6.3700,-1.2600,1001.2026,2.2834,2.5390,9.1929,1590698113,N
89,4197887,2.3019,2.4000,9.1956,0.2100,-2.5900,2.0300,1001.2026,2.3152,2.5199,9.1902,1590698113,N
89,4197780,2.3354,2.7470,9.2411,2.8000,-7.9800,4.6900,1001.2021,2.3999,2.6035,9.1451,1590698113,N
89,4197938,2.7685,2.4455,9.1454,3.9900,-0.9100,4.6900,1001.2024,2.5014,2.5949,9.1203,1590698113,N
89,4197999,2.5149,2.8810,9.3081,4.9700,0.3500,1.9600,1001.2023,2.5106,2.6718,9.0955,1590698113,N
89,4197972,2.6441,2.7876,9.1095,2.3800,-1.4000,-1.3300,1001.2019,2.5495,2.7187,9.0708,1590698113,N
89,4197896,2.5436,2.7876,9.2267,-0.4200,-1.1200,-2.0300,1001.2018,2.5428,2.7294,9.0695,1590698113,N
89,4054113,2.8020,2.6177,9.1908,-0.9100,-2.5900,-0.9800,1001.2018,2.6015,2.7040,9.0604,1590698114,N
89,3935718,2.7374,2.9025,9.2124,-0.3500,2.3100,-1.4000,1001.2015,2.5928,2.7224,9.0574,1590698114,N
88,3616122,2.6824,2.5316,9.0449,-3.4300,5.7400,-3.9200,1001.2010,2.5449,2.6462,9.0935,1590698114,N
87,2993630,2.3306,2.5962,9.0257,-0.2100,4.8300,-0.9800,1001.2015,2.4654,2.6257,9.1213,1590698114,N
88,2457846,2.5101,2.7876,9.2315,-0.8400,2.1700,-1.6800,1001.2017,2.4419,2.6377,9.1241,1590698114,N
88,2297923,2.4024,2.8283,9.0975,-3.0800,4.1300,-2.1700,1001.2012,2.3842,2.6376,9.1394,1590698114,N
87,2306949,2.1918,2.9456,9.2435,-6.5800,2.4500,0.8400,1001.2005,2.3004,2.6233,9.1650,1590698114,N
86,2391372,2.4718,2.2540,9.1837,-7.0000,6.5100,1.7500,1001.2003,2.2631,2.4607,9.2192,1590698114,N
87,3115224,2.2923,2.0267,9.1765,-3.7800,6.7900,7.2100,1001.2014,2.2219,2.3038,9.2696,1590698114,N
86,4197707,1.6391,2.3809,9.4804,3.7800,6.8600,10.0100,1001.2022,2.0735,2.3012,9.3046,1590698114,N
86,4197897,1.8209,2.2995,9.2243,-10.4300,-5.7400,8.3300,1001.2020,2.0539,2.2258,9.3273,1590698115,N
86,4197846,2.2397,1.8640,9.1669,-10.4300,-7.6300,-0.2800,1001.2018,2.1248,2.1028,9.3399,1590698115,N
86,3830497,2.7302,1.5912,9.4780,-2.1700,-2.1000,-10.0800,1001.2017,2.2202,2.0038,9.3395,1590698115,N
86,2881172,2.4718,1.8568,9.5210,-2.5200,-7.3500,-2.6600,1001.2017,2.3049,1.9759,9.3249,1590698115,N
85,2387017,2.6297,2.4814,9.5186,-4.6200,1.4700,-1.0500,1001.2012,2.3182,2.0171,9.3128,1590698115,N
85,2353828,2.5842,1.8544,9.3727,1.1900,2.0300,1.8200,1001.2006,2.3557,1.9797,9.3114,1590698115,N
85,2775502,2.4981,1.6487,9.3488,2.5200,1.0500,4.2000,1001.2002,2.3953,1.9211,9.3136,1590698115,N
84,3019496,2.3689,2.2301,9.5115,3.3600,4.9700,1.9600,1001.2003,2.3572,1.9802,9.3109,1590698115,N
86,3287325,2.3785,2.0626,9.4445,1.8200,10.6400,3.7800,1001.2003,2.2805,1.9641,9.3334,1590698115,N
85,3464550,1.9310,2.1224,9.5019,-6.5800,0.2800,8.8900,1001.2009,2.1893,1.9186,9.3646,1590698115,N
85,4197937,2.0315,2.0148,9.5617,-4.3400,-0.1400,2.6600,1001.2017,2.1366,1.8898,9.3826,1590698116,N
85,4197805,2.0578,1.5697,9.5306,-5.8100,-1.8200,-0.3500,1001.2020,2.1077,1.7797,9.4107,1590698116,N
85,4197909,2.2708,2.0004,9.6191,3.2900,-4.9000,13.1600,1001.2028,2.2124,1.8343,9.3761,1590698116,N
85,4197912,2.6489,2.4718,9.3631,-5.3900,-17.2900,-2.7300,1001.2040,2.4091,1.9663,9.3006,1590698116,N
85,4197930,3.1609,1.4812,9.2315,3.5000,-5.2500,-7.7000,1001.2049,2.5881,1.9316,9.2596,1590698116,N
85,4137428,2.6441,2.1990,9.3105,7.8400,2.8700,-11.7600,1001.2047,2.5804,2.0610,9.2339,1590698116,N
86,3145010,2.3354,1.4883,8.7625,27.0900,3.7800,-10.3600,1001.2040,2.6378,2.1977,9.1860,1590698116,N
86,3386377,2.4239,3.0748,9.3775,24.6400,7.4900,-10.2200,1001.2034,2.5937,2.5437,9.1089,1590698116,N
86,4197852,2.6584,1.8329,9.1238,1.6100,15.2600,-8.0500,1001.2028,2.4803,2.3869,9.1826,1590698116,N
86,4197833,1.5266,3.3308,8.9324,19.8100,2.1000,-3.9200,1001.2026,2.3338,2.7308,9.1251,1590698116,N
86,4198018,1.8257,3.8548,8.8702,17.0100,-12.8100,2.8000,1001.2026,2.3992,3.1131,8.9846,1590698117,N
86,4197976,2.3426,3.7304,8.6309,16.8000,-15.6800,8.4000,1001.2021,2.5890,3.4144,8.8210,1590698117,N
86,4197930,2.5388,4.1204,8.8295,5.8100,-11.1300,-0.2800,1001.2023,2.6675,3.6204,8.7148,1590698117,N
87,3668870,2.8259,4.4052,8.3557,11.2700,-2.0300,-5.3200,1001.2032,2.7270,3.8828,8.5824,1590698117,N
87,3034466,2.9264,4.0152,8.4969,4.9700,-2.7300,2.0300,1001.2038,2.8022,3.9493,8.5277,1590698117,N
87,2258785,2.6704,4.5488,8.6572,-2.5900,-1.1900,-3.1500,1001.2045,2.7537,4.0324,8.5046,1590698117,N
88,2069762,3.0102,3.8764,8.5472,-8.0500,5.8800,-3.3600,1001.2053,2.7322,3.9230,8.5624,1590698117,N
88,2045012,2.7326,3.9649,8.5567,-14.1400,-2.7300,-2.8700,1001.2057,2.7145,3.8428,8.6044,1590698117,N
88,2509022,2.8164,3.5653,8.8487,-6.6500,0.2100,-0.6300,1001.2062,2.7103,3.7254,8.6571,1590698117,N
88,2167948,2.8475,3.2495,8.5974,-4.5500,-4.9700,0.4200,1001.2061,2.7782,3.6242,8.6785,1590698117,N
89,1980508,2.8307,3.6778,8.9276,0.3500,1.1200,5.0400,1001.2060,2.7807,3.5972,8.6890,1590698118,N
88,1960954,2.6249,3.9266,8.6189,-1.3300,-1.5400,2.4500,1001.2065,2.7649,3.6488,8.6725,1590698118,N
88,1957772,3.1322,3.4552,8.7458,-0.2100,2.1000,0.3500,1001.2071,2.8158,3.5914,8.6801,1590698118,N
89,1956346,2.9264,3.6706,8.7458,2.2400,2.9400,1.0500,1001.2070,2.8169,3.6008,8.6758,1590698118,N
89,1969670,2.7661,3.6275,8.8080,-2.5200,-1.8200,-1.4700,1001.2067,2.8040,3.5905,8.6843,1590698118,N
89,1952939,2.7948,3.8285,8.7960,-5.1800,6.0900,-4.2700,1001.2063,2.7217,3.5721,8.7180,1590698118,N
90,1950324,2.8834,3.1992,8.8223,-7.1400,4.2700,-3.1500,1001.2056,2.6955,3.4316,8.7823,1590698118,N
90,1945328,2.7111,3.5725,8.9492,-1.7500,1.6800,3.5000,1001.2056,2.6797,3.4134,8.7942,1590698118,N
90,1925876,2.6297,3.1681,8.7936,-0.7000,2.0300,0.6300,1001.2053,2.6595,3.3544,8.8230,1590698118,N
90,1921387,2.6297,3.3858,8.8439,2.8700,2.5900,-1.3300,1001.2050,2.6361,3.3753,8.8221,1590698118,N
90,1922175,2.8187,2.9432,8.7099,1.3300,1.4700,0.4200,1001.2056,2.6781,3.3032,8.8367,1590698119,N
90,1950960,2.6010,3.5151,8.9994,7.4200,4.1300,-2.1700,1001.2065,2.6337,3.3797,8.8211,1590698119,N
91,2248838,2.6177,3.5246,8.8774,0.4200,1.3300,4.3400,1001.2074,2.6278,3.3861,8.8204,1590698119,N
91,2813502,2.5723,3.3835,8.9204,-0.6300,1.8900,0.4900,1001.2080,2.5975,3.3659,8.8371,1590698119,N
91,2846318,2.5699,3.1561,8.8199,1.4000,5.1100,1.8900,1001.2078,2.5658,3.3141,8.8659,1590698119,N
91,2731468,2.5029,3.5797,8.8726,4.1300,3.7100,0.6300,1001.2078,2.5325,3.3749,8.8525,1590698119,N
91,2938138,2.2828,3.7280,8.8606,1.2600,3.9200,-1.0500,1001.2081,2.4487,3.4326,8.8539,1590698119,N
91,3400856,2.4096,3.5007,8.9061,1.2600,3.1500,-1.1200,1001.2078,2.4131,3.4402,8.8607,1590698119,N
91,4080778,2.2421,3.4959,8.9659,-0.2100,0.6300,0.9100,1001.2081,2.3716,3.4381,8.8727,1590698119,N
91,4197918,2.3976,3.6275,8.9204,-2.3800,0.2800,0.3500,1001.2083,2.3645,3.4452,8.8719,1590698119,N
91,4197949,2.3928,3.5151,8.9372,-2.5200,1.1200,0.4200,1001.2087,2.3522,3.4255,8.8828,1590698120,N
91,4197958,2.3833,3.2710,8.9228,-4.2000,2.5200,2.1700,1001.2093,2.3348,3.3424,8.9189,1590698120,N
91,4197978,2.3569,3.3236,9.1621,-2.7300,0.1400,6.1600,1001.2104,2.3363,3.2827,8.9407,1590698120,N
91,4197908,2.3378,3.2016,8.9755,-4.2000,-0.4200,1.6100,1001.2119,2.3333,3.2292,8.9609,1590698120,N
91,4198054,2.4024,3.1035,9.0760,-3.4300,0.7000,0.0700,1001.2129,2.3293,3.1674,8.9840,1590698120,N
91,4197972,2.4215,3.1274,9.0138,-0.7700,3.7100,-0.2100,1001.2139,2.3139,3.1339,8.9997,1590698120,N
91,4197992,2.2421,3.2183,9.0114,-1.1200,0.4900,1.4000,1001.2145,2.2950,3.1337,9.0046,1590698120,N
91,4198017,2.3210,3.1226,9.0736,-4.4800,1.6800,1.1200,1001.2153,2.2747,3.0794,9.0285,1590698120,N
91,4197883,2.4168,2.9480,9.0520,-3.0800,0.4200,0.9800,1001.2154,2.2932,3.0221,9.0432,1590698120,N
91,4198029,2.5364,2.9671,9.1908,0.5600,2.8000,0.4900,1001.2151,2.3127,2.9911,9.0485,1590698120,N
91,4197824,2.2158,2.9504,9.0114,0.2800,2.5200,-0.0700,1001.2151,2.2766,2.9780,9.0620,1590698121,N
91,4160332,2.3019,2.9192,9.1884,1.2600,2.2400,2.3100,1001.2142,2.2675,2.9538,9.0721,1590698121,N
91,3978636,2.1679,3.1968,9.0449,-0.6300,1.5400,1.0500,1001.2139,2.2350,2.9841,9.0703,1590698121,N
91,3630096,2.3067,2.9312,9.1573,-1.4000,0.7700,-1.1900,1001.2136,2.2328,2.9568,9.0798,1590698121,N
91,3388724,2.1727,2.8379,9.0497,-0.7700,-2.5900,2.5200,1001.2129,2.2489,2.9366,9.0824,1590698121,N
90,3414881,2.3856,2.9791,8.8846,-2.2400,-1.2600,0.7700,1001.2121,2.2887,2.9393,9.0715,1590698121,N
91,3196271,2.2134,3.0939,9.2315,0.0700,0.9100,0.4900,1001.2111,2.2597,2.9542,9.0740,1590698121,N
90,2890499,2.4455,2.8786,9.0975,-2.9400,2.7300,-0.5600,1001.2103,2.2629,2.9014,9.0902,1590698121,N
90,2598537,2.0483,3.0054,9.3033,-0.7700,2.6600,-1.5400,1001.2095,2.1849,2.8969,9.1107,1590698121,N
90,2469431,2.2708,2.7805,9.1645,-0.7000,2.6600,-1.8200,1001.2090,2.1730,2.8577,9.1259,1590698121,N
90,2749495,2.1823,2.6800,9.1525,0.9100,2.3800,1.1200,1001.2084,2.1618,2.8166,9.1413,1590698122,N
90,3584957,2.1224,3.1107,9.2291,3.9900,3.9900,1.1200,1001.2077,2.1285,2.8752,9.1309,1590698122,N
90,3574930,1.9190,3.0341,9.0951,2.1000,3.5000,1.1200,1001.2068,2.0668,2.9047,9.1357,1590698122,N
90,3272501,2.0148,3.0221,9.1956,-0.9800,0.9800,-0.4900,1001.2051,2.0412,2.9106,9.1396,1590698122,N
90,3260828,2.0171,3.1872,9.1765,0.6300,1.4000,1.8200,1001.2043,2.0263,2.9501,9.1302,1590698122,N
90,3858735,2.0770,2.8834,9.0449,0.8400,1.9600,-0.6300,1001.2034,2.0251,2.9406,9.1336,1590698122,N
89,3860228,1.9190,2.7924,9.2219,-1.3300,3.7100,0.4200,1001.2027,1.9701,2.8783,9.1654,1590698122,N
90,3726554,1.8736,2.9767,9.1669,-0.2100,3.2900,-0.2800,1001.2036,1.9220,2.8776,9.1758,1590698122,N
89,3857597,1.8855,2.9934,9.1980,-0.6300,1.0500,0.6300,1001.2048,1.9039,2.8843,9.1775,1590698122,N
89,4113773,1.9286,3.0054,9.2267,-2.3100,-0.3500,-0.2100,1001.2061,1.9022,2.8860,9.1773,1590698122,N
89,4197772,1.9119,3.0580,9.2770,-0.8400,0.4200,-1.2600,1001.2072,1.8905,2.9050,9.1737,1590698123,N
89,4197918,1.8855,2.8905,9.1478,-2.2400,-0.2100,0.2100,1001.2078,1.8873,2.8856,9.1805,1590698123,N
89,4197775,1.9167,2.8235,9.3942,-3.6400,-0.6300,2.2400,1001.2079,1.8868,2.8293,9.1981,1590698123,N
89,4197858,1.9310,2.7637,9.2483,-1.4700,2.0300,3.0800,1001.2089,1.8799,2.7820,9.2139,1590698123,N
89,3315524,1.9286,2.8307,9.1573,-2.8000,0.3500,2.5200,1001.2094,1.8858,2.7613,9.2190,1590698123,N
89,2506839,1.9334,2.7350,9.2530,-0.9800,-0.4200,0.0700,1001.2093,1.8950,2.7480,9.2210,1590698123,N
89,2321156,1.9884,2.8259,9.3392,0.1400,0.4200,0.4200,1001.2088,1.9054,2.7529,9.2175,1590698123,N
89,2284629,1.9047,2.7900,9.2746,0.1400,0.6300,0.0700,1001.2080,1.8981,2.7542,9.2186,1590698123,N
89,2272725,1.9573,2.7948,9.2602,0.4200,0.2800,0.4900,1001.2070,1.9072,2.7596,9.2151,1590698123,N
89,2269080,1.8257,2.8570,9.3488,-1.1200,-2.3800,1.4700,1001.2062,1.9054,2.7710,9.2120,1590698123,N
88,2244879,2.0459,2.8140,9.2602,-0.7700,-0.3500,0.0700,1001.2048,1.9309,2.7701,9.2070,1590698124,N
89,2198559,2.0650,2.7159,9.3033,-0.7700,0.2800,0.7700,1001.2037,1.9506,2.7436,9.2108,1590698124,N
88,2203836,1.9310,2.8499,9.3009,1.5400,1.9600,0.4200,1001.2037,1.9311,2.7598,9.2100,1590698124,N
88,2199906,1.8855,2.8307,9.2459,0.1400,0.1400,-0.2100,1001.2037,1.9191,2.7723,9.2088,1590698124,N
88,2201656,2.0387,2.8020,9.3296,-0.3500,1.4000,-0.7000,1001.2036,1.9231,2.7615,9.2112,1590698124,N
88,2189159,1.9430,2.8187,9.3416,1.1200,1.8200,-0.0700,1001.2037,1.9093,2.7646,9.2131,1590698124,N
88,2184251,1.9071,2.8379,9.2483,0.2100,2.1700,-0.6300,1001.2036,1.8882,2.7676,9.2166,1590698124,N
88,2142928,1.8185,2.8499,9.2865,-0.3500,1.3300,0.4200,1001.2026,1.8603,2.7680,9.2222,1590698124,N
88,2119509,1.9190,2.8570,9.3320,-0.7000,1.1200,-1.1200,1001.2020,1.8534,2.7684,9.2234,1590698124,N
88,2099420,1.8855,2.6943,9.2650,-0.3500,0.2100,-0.3500,1001.2017,1.8556,2.7490,9.2287,1590698124,N
88,2134101,1.9190,2.7350,9.3344,0.1400,1.4000,1.6100,1001.2016,1.8561,2.7296,9.2344,1590698125,N
88,2147217,1.8209,2.8068,9.1454,-0.6300,-1.1900,0.6300,1001.2014,1.8612,2.7484,9.2278,1590698125,N
88,2204018,1.9334,2.7876,9.2913,-0.4900,-0.0700,0.2800,1001.2015,1.8722,2.7471,9.2260,1590698125,N
88,2245949,1.8449,2.7135,9.3057,-1.3300,-0.7000,0.3500,1001.2015,1.8675,2.7288,9.2324,1590698125,N
88,2407222,1.9693,2.8164,9.3105,-0.1400,0.1400,-0.9800,1001.2026,1.8797,2.7403,9.2265,1590698125,N
88,2376825,1.9693,2.6465,9.2889,0.1400,0.4200,-0.0700,1001.2033,1.8925,2.7178,9.2305,1590698125,N
88,2332837,1.9549,2.6584,9.2674,0.1400,0.5600,-0.2800,1001.2041,1.8990,2.7031,9.2335,1590698125,N
87,2244789,1.9693,2.7637,9.2818,0.6300,0.4200,0.9100,1001.2043,1.9100,2.7117,9.2287,1590698125,N
88,2171326,1.9621,2.7924,9.3057,0.1400,-0.1400,-1.3300,1001.2043,1.9152,2.7273,9.2230,1590698125,N
88,2134766,1.8951,2.6656,9.2842,0.8400,0.0700,0.6300,1001.2029,1.9127,2.7181,9.2263,1590698125,N
88,2146817,1.9143,2.7565,9.3320,0.5600,-0.0700,0.2800,1001.2023,1.9114,2.7240,9.2248,1590698126,N
88,2212730,1.9238,2.8283,9.1956,-0.0700,0.0700,1.8200,1001.2020,1.9166,2.7388,9.2193,1590698126,N
88,2527551,1.8329,2.7613,9.1860,-1.1200,0.3500,1.7500,1001.2013,1.8990,2.7297,9.2257,1590698126,N
88,2806964,1.9645,2.8259,9.3296,-1.9600,1.8200,-0.3500,1001.2015,1.8858,2.7156,9.2325,1590698126,N
88,2727652,1.8903,2.6417,9.3272,-0.8400,0.1400,-2.0300,1001.2013,1.8768,2.6944,9.2406,1590698126,N
88,2436146,1.9908,2.6417,9.2865,-0.2800,-0.1400,-0.5600,1001.2015,1.8968,2.6809,9.2404,1590698126,N
88,2160742,1.9884,2.6608,9.4899,0.7000,0.7000,0.5600,1001.2017,1.9026,2.6644,9.2440,1590698126,N
88,2436397,1.8736,2.7494,9.3272,0.4200,0.7000,2.6600,1001.2017,1.8937,2.6691,9.2445,1590698126,N
88,2650487,2.0626,2.9264,9.2842,2.8700,0.4900,-0.0700,1001.2015,1.9254,2.7341,9.2189,1590698126,N
88,2734103,1.6750,2.8403,9.4756,1.3300,2.8000,0.2800,1001.2023,1.8477,2.7382,9.2336,1590698126,N
88,2512584,1.7994,2.6800,9.2219,0.9800,1.9600,-1.6800,1001.2027,1.8223,2.7301,9.2410,1590698127,N
88,2177041,1.9813,2.8666,9.2267,0.5600,1.7500,-1.2600,1001.2029,1.8364,2.7527,9.2315,1590698127,N
88,2007286,1.9143,2.5675,9.3679,0.9800,0.7000,-1.6100,1001.2031,1.8426,2.7191,9.2402,1590698127,N
88,1972397,1.7898,2.6082,9.2363,0.4200,1.8900,-0.8400,1001.2036,1.8174,2.6944,9.2524,1590698127,N
88,1968798,1.9071,2.7470,9.2507,1.1900,2.5900,0.0700,1001.2034,1.8159,2.6989,9.2514,1590698127,N
88,1980960,1.7922,2.8140,9.3344,0.3500,1.7500,-2.8700,1001.2032,1.7881,2.7156,9.2519,1590698127,N
88,2139891,1.7085,2.5364,9.2818,-0.4900,-0.4200,0.5600,1001.2028,1.7768,2.6785,9.2649,1590698127,N
87,2660385,1.7611,2.9169,9.3320,-0.9100,-0.1400,1.9600,1001.2026,1.7721,2.7058,9.2579,1590698127,N
88,3251346,1.8233,2.7159,9.2961,-1.7500,-0.9800,1.4700,1001.2026,1.7871,2.6922,9.2590,1590698127,N
88,3288971,1.7898,2.7182,9.3224,-2.5200,-2.1000,3.6400,1001.2039,1.8030,2.6749,9.2609,1590698127,N
87,2915930,1.8353,2.7876,9.2865,-0.5600,0.2100,1.1900,1001.2047,1.8064,2.6849,9.2574,1590698128,N
88,2380070,1.8162,2.6656,9.2937,-0.7000,0.4900,-0.4200,1001.2056,1.8005,2.6717,9.2623,1590698128,N
88,2269189,1.9167,2.5460,9.2626,-2.0300,-1.6100,1.8200,1001.2060,1.8358,2.6341,9.2662,1590698128,N
88,2385984,1.9071,2.6321,9.3966,-0.3500,-0.7700,-0.3500,1001.2070,1.8496,2.6286,9.2650,1590698128,N
87,2512187,1.8903,2.5962,9.3368,2.4500,2.9400,-0.7700,1001.2079,1.8358,2.6251,9.2687,1590698128,N
88,2597795,1.7970,2.6393,9.3177,1.4000,1.0500,-0.8400,1001.2093,1.8199,2.6338,9.2694,1590698128,N
87,2641739,1.7779,2.7398,9.2722,0.1400,-0.2100,-0.1400,1001.2100,1.8125,2.6561,9.2645,1590698128,N
87,2215040,1.8018,2.6321,9.3033,1.1200,1.2600,-0.7700,1001.2103,1.8003,2.6542,9.2674,1590698128,N
87,2083048,1.8209,2.7446,9.3009,0.2100,0.7000,0.0700,1001.2112,1.7971,2.6664,9.2645,1590698128,N
87,2035110,1.7827,2.6847,9.3464,0.5600,1.3300,-0.3500,1001.2108,1.7810,2.6638,9.2684,1590698128,N
87,2018681,1.7300,2.7206,9.3129,0.1400,1.1200,0.6300,1001.2108,1.7613,2.6655,9.2717,1590698129,N
87,2014258,1.7946,2.7254,9.2961,-0.5600,0.5600,0.4200,1001.2105,1.7610,2.6658,9.2716,1590698129,N
86,2040844,1.7874,2.7111,9.3081,-1.1200,-0.0700,-0.0700,1001.2101,1.7620,2.6631,9.2722,1590698129,N
87,2157750,1.8401,2.7087,9.3153,-0.7000,-0.7000,1.2600,1001.2106,1.7815,2.6634,9.2684,1590698129,N
86,2367509,1.7779,2.6776,9.3631,-1.5400,0.4200,-0.2800,1001.2110,1.7695,2.6465,9.2755,1590698129,N
86,2372626,1.7611,2.6489,9.2794,-0.6300,1.2600,0.2800,1001.2108,1.7561,2.6334,9.2818,1590698129,N
85,2311818,1.8066,2.7039,9.4158,-0.2100,0.6300,-0.4900,1001.2107,1.7539,2.6349,9.2818,1590698129,N
86,2256821,1.8066,2.5866,9.2865,0.7700,1.2600,-0.4900,1001.2104,1.7550,2.6258,9.2842,1590698129,N
86,2271601,1.7492,2.7733,9.3344,1.1200,1.6100,-0.0700,1001.2090,1.7402,2.6504,9.2799,1590698129,N
85,2264016,1.7468,2.6776,9.3129,0.7700,0.3500,1.4000,1001.2076,1.7417,2.6546,9.2785,1590698129,N
85,2290427,1.8185,2.7374,9.2794,-0.9100,-2.3100,1.5400,1001.2064,1.7756,2.6709,9.2674,1590698130,N
85,2301657,1.8449,2.7589,9.3751,-0.7700,-0.5600,-1.1200,1001.2053,1.7849,2.6804,9.2628,1590698130,N
85,2272559,1.8353,2.5555,9.3272,-0.0700,0.9800,-0.8400,1001.2041,1.7839,2.6492,9.2720,1590698130,N
85,2240951,1.8185,2.6847,9.3105,0.0700,-1.4700,1.7500,1001.2023,1.8046,2.6580,9.2655,1590698130,N
84,2173515,1.7922,2.7470,9.3870,0.9800,1.8900,-1.0500,1001.2021,1.7820,2.6684,9.2669,1590698130,N
85,2143739,1.7587,2.6465,9.3248,0.0700,-0.4200,0.2100,1001.2015,1.7798,2.6641,9.2685,1590698130,N
85,2124885,1.8808,2.6369,9.2865,0.0700,-0.7700,0.2100,1001.2001,1.8059,2.6616,9.2642,1590698130,N
85,2093001,1.9214,2.7613,9.2889,0.0700,1.1200,-0.6300,1001.1987,1.8158,2.6736,9.2588,1590698130,N
84,2090140,1.8784,2.6800,9.3153,-0.5600,0.9100,-1.2600,1001.1971,1.8144,2.6647,9.2616,1590698130,N
84,2117472,1.8473,2.5603,9.3129,-0.5600,1.6800,0.6300,1001.1965,1.8058,2.6265,9.2742,1590698130,N
84,2174233,1.7061,2.7159,9.2937,-1.4000,-2.3800,2.8000,1001.1958,1.8064,2.6374,9.2710,1590698131,N
84,2198826,1.9143,2.6321,9.2722,-1.1200,-0.0700,-0.0700,1001.1959,1.8246,2.6264,9.2706,1590698131,N
83,2196576,1.9860,2.6608,9.2602,0.7700,1.1900,-0.2800,1001.1973,1.8470,2.6328,9.2643,1590698131,N
84,2185284,1.8975,2.6058,9.2865,2.0300,2.8000,-0.6300,1001.1985,1.8372,2.6297,9.2671,1590698131,N
83,2196204,1.6750,2.7326,9.3655,1.4000,2.3100,0.3500,1001.1995,1.7864,2.6431,9.2732,1590698131,N
83,2238204,1.7755,2.6560,9.2889,0.7000,0.9800,0.1400,1001.2005,1.7775,2.6448,9.2745,1590698131,N
83,2292187,1.8162,2.6680,9.3296,0.6300,0.2800,0.8400,1001.2011,1.7837,2.6476,9.2725,1590698131,N
83,2369812,1.7755,2.7206,9.2435,-0.2800,0.4900,-0.5600,1001.2015,1.7766,2.6587,9.2707,1590698131,N
83,2393721,1.7515,2.7302,9.3153,-0.7000,0.1400,0.4200,1001.2012,1.7673,2.6618,9.2716,1590698131,N
83,2380298,1.8018,2.6130,9.3583,-1.0500,-2.8000,1.3300,1001.2016,1.7946,2.6517,9.2692,1590698131,N
83,2315767,1.7970,2.7852,9.3751,1.1200,1.6100,0.2800,1001.2018,1.7803,2.6702,9.2667,1590698132,N
82,2261259,1.8855,2.7829,9.3200,0.4900,0.4200,-0.7000,1001.2019,1.7939,2.6908,9.2581,1590698132,N
82,2235657,1.9047,2.6584,9.3894,0.2800,0.7700,0.4900,1001.2015,1.8062,2.6739,9.2606,1590698132,N
82,2254816,1.7252,2.6608,9.3679,-0.8400,-0.7000,1.2600,1001.2009,1.7930,2.6605,9.2670,1590698132,N
82,2302972,1.8473,2.7278,9.3344,-1.6100,-0.1400,1.1200,1001.2014,1.7995,2.6532,9.2678,1590698132,N
82,2331313,2.0028,2.5627,9.3440,0.0700,-0.2100,0.1400,1001.2016,1.8388,2.6321,9.2661,1590698132,N
82,2306867,1.8951,2.7661,9.3823,0.6300,1.5400,0.7700,1001.2017,1.8345,2.6451,9.2633,1590698132,N
82,2236972,1.9190,2.7422,9.2507,-2.0300,0.8400,-1.6100,1001.2020,1.8348,2.6451,9.2632,1590698132,N
82,2171701,1.9382,2.4957,9.3918,-2.3800,-1.7500,-0.6300,1001.2022,1.8588,2.6005,9.2711,1590698132,N
81,2162034,1.9310,2.4072,9.3296,0.4200,1.4000,0.9800,1001.2029,1.8642,2.5539,9.2829,1590698132,N
82,2203459,1.9549,2.8187,9.2913,2.7300,1.6800,-1.8900,1001.2031,1.8689,2.6199,9.2636,1590698133,N
81,2821649,1.2251,2.8451,9.1573,-7.5600,-6.7200,-10.0800,1001.2029,1.7611,2.6772,9.2683,1590698133,N
81,3071097,1.5027,2.5890,9.5450,-38.9200,-63.4200,-31.6400,1001.2034,2.0796,2.8137,9.1613,1590698133,N
81,2140315,2.7470,1.3591,9.2124,-34.5800,-47.7400,-28.7700,1001.2036,2.4543,2.4900,9.1622,1590698133,N
81,1919280,3.6179,1.4572,9.6718,-43.7500,-55.2300,-27.8600,1001.2032,2.8556,2.1577,9.1302,1590698133,N
81,1913029,4.4722,-0.0598,7.0851,-67.0600,18.4100,20.8600,1001.2031,6.7015,3.0838,6.4614,1590698133,N
80,1837830,3.6682,-0.7944,8.0327,-16.0300,38.0100,-5.1800,1001.2038,6.5335,1.9908,7.0371,1590698133,N
81,1832745,4.1779,0.1627,10.3226,-5.3200,-16.3100,-5.1800,1001.2046,6.8811,1.8557,6.7362,1590698133,N
81,1845070,4.8574,0.3278,9.2148,5.5300,2.1700,4.9000,1001.2057,6.9661,1.5313,6.7305,1590698133,N
81,1883102,4.2305,0.1723,9.2148,42.9100,30.2400,-5.6700,1001.2082,2.6793,0.6968,9.4078,1590698133,N
80,2148430,1.4524,-0.0215,9.8943,-7.5600,6.3700,-9.6600,1001.2108,2.2319,0.4456,9.5389,1590698134,N
81,2502847,2.1846,-1.3424,9.3272,-52.9200,52.8500,13.9300,1001.2126,6.5496,0.1011,7.2982,1590698134,N
81,2238011,3.1705,0.3661,10.6648,-10.9900,-158.2700,65.3100,1001.2213,7.6531,-0.1791,6.1293,1590698134,N
81,1911729,7.1521,-0.4570,10.0164,-6.8600,-41.0200,-41.3000,1001.6887,8.4776,0.0987,4.9286,1590698134,N
82,1889972,6.0634,-2.5962,8.8511,5.1100,-27.1600,-9.5200,1001.6916,8.2812,-0.1309,5.2512,1590698134,N
81,1877934,5.2379,-2.5962,8.5352,11.0600,-21.7700,38.8500,1001.6762,6.2939,-0.8557,7.4716,1590698134,N
82,1878395,4.8144,1.7492,10.2987,117.3200,52.0100,13.9300,1001.6536,8.3902,-0.1345,5.0751,1590698134,N
82,1880222,3.7639,1.3352,8.5543,67.7600,26.3200,22.6800,1001.6274,7.4141,0.5039,6.3990,1590698134,N
82,1876850,3.8812,2.2181,9.0401,81.4100,44.9400,11.7600,1001.6000,6.3612,1.3682,7.3371,1590698134,N
82,1899443,2.0554,3.9003,8.9396,40.7400,58.1700,7.4200,1001.5714,4.8159,2.2431,8.2429,1590698134,N
82,1977604,0.5958,4.2353,8.8319,-2.6600,21.3500,-21.0700,1001.5432,3.3356,2.6895,8.8210,1590698135,N
81,2015558,0.7178,4.0128,8.6142,7.0000,48.5800,-35.0000,1001.5156,2.1649,2.8827,9.1199,1590698135,N
82,2007035,0.3829,2.9982,8.8798,-19.5300,8.6800,-14.5600,1001.4897,1.5299,2.6754,9.3098,1590698135,N
81,2021179,0.1555,3.1059,9.2698,-3.0800,14.1400,7.7700,1001.4650,1.0923,2.5389,9.4091,1590698135,N
81,2328976,0.0814,3.6156,9.6790,-22.8900,16.9400,12.8100,1001.4413,0.6960,2.2190,9.5269,1590698135,N
81,2237739,1.7898,2.4957,11.6315,-101.4300,-4.2700,30.9400,1001.4199,0.5906,1.2299,9.7113,1590698135,N
81,1914910,-1.7779,2.1703,10.0881,-21.1400,26.6700,-20.9300,1001.4007,-0.1056,0.5127,9.7927,1590698135,N
81,1908681,-1.0457,1.1007,9.0185,-44.4500,20.0900,-10.0800,1001.3833,-0.4819,-1.6457,9.6556,1590698135,N
81,1849844,0.6365,-1.3878,9.0042,-52.5700,6.5800,-25.8300,1001.3660,-1.0671,-2.6934,9.3689,1590698135,N
82,1843954,3.0102,-1.6726,9.5067,-9.2400,5.0400,14.4900,1001.3503,0.5341,0.0901,9.7917,1590698135,N
81,1840282,0.7466,0.6843,8.8917,20.4400,35.8400,7.4200,1001.3365,-0.4276,-0.4544,9.7868,1590698136,N
81,1838398,-0.5767,2.3498,8.1619,27.4400,14.0700,8.3300,1001.3240,-0.2712,0.0116,9.8029,1590698136,N
81,1835960,-0.0742,0.2321,10.1575,-68.3900,20.5800,-56.3500,1001.3128,-1.3117,-2.6739,9.3434,1590698136,N
81,1835486,-1.1988,-2.2732,9.2435,3.7100,1.1200,-8.4000,1001.3022,-1.4702,-4.5620,8.5555,1590698136,N
81,1833615,-1.2132,-0.9165,9.1382,-28.2800,-9.2400,-10.7800,1001.2930,-1.3898,7.6214,6.0127,1590698136,N
81,1830696,1.6654,0.0694,10.5858,-43.0500,-56.2800,-20.3000,1001.2847,1.0474,2.7373,9.3584,1590698136,N
81,1827075,0.8638,-3.5677,9.0066,-61.8800,-54.4600,-26.5300,1001.2784,2.7965,4.9703,7.9778,1590698136,N
81,1818991,0.0981,-4.3214,9.2076,-46.6200,-56.9100,-28.7000,1001.2729,3.6581,5.9543,6.8800,1590698136,N
81,1814183,2.7111,-4.6780,9.7005,34.1600,5.0400,-29.7500,1001.2686,3.8420,5.3142,7.2917,1590698136,N
81,1820869,3.8883,-4.2760,9.2004,27.7900,21.7000,-12.1800,1001.2654,4.0420,3.9406,8.0190,1590698136,N
81,1832304,2.9432,-3.2495,8.9563,14.8400,4.4100,9.7300,1001.2629,5.0273,2.2867,8.1036,1590698137,N
81,1840511,2.2110,-4.1922,9.7388,-2.8000,35.0700,20.6500,1001.2611,4.8669,1.1396,8.4371,1590698137,N
81,1850038,2.2229,-4.1204,9.8704,-29.0500,1.7500,46.2000,1001.2592,5.7241,0.4143,7.9519,1590698137,N
81,1858371,1.3639,-1.9095,8.9157,47.6000,8.0500,18.6200,1001.2579,5.9794,-0.1173,7.7720,1590698137,N
81,1864500,2.0267,-2.5747,9.1525,15.5400,-2.1000,-0.4200,1001.2553,6.0048,-0.6951,7.7220,1590698137,N
81,1864466,1.9621,-2.2493,9.2961,17.1500,-2.1700,-0.2800,1001.2529,4.7124,-1.1568,8.5221,1590698137,N
81,1862398,2.0267,-2.1368,9.2363,4.4100,-6.3000,-11.3400,1001.2506,3.7185,-1.3762,8.9694,1590698137,N
82,1861804,2.7709,-1.9645,9.4253,-2.8700,-0.4900,-18.8300,1001.2477,3.4983,-1.4697,9.0428,1590698137,N
81,1861924,1.9071,-2.6130,9.5282,12.0400,8.6100,-10.1500,1001.2457,2.8163,-1.5517,9.2645,1590698137,N
81,1861616,1.9908,-1.8664,9.3655,13.4400,0.7000,-6.0200,1001.2437,2.4870,-1.4903,9.3682,1590698137,N
81,1860626,2.5196,-1.0169,9.3416,-4.7600,-8.1900,-6.0900,1001.2419,2.6438,-1.4451,9.3323,1590698138,N
82,1860861,2.5460,-1.7755,9.7364,-6.7900,-8.1900,-8.1200,1001.2401,2.7368,-1.5506,9.2885,1590698138,N
81,1861089,2.2947,-2.5484,9.3727,-0.6300,0.7000,-11.6200,1001.2380,2.6559,-1.7099,9.2840,1590698138,N
81,1859296,2.6536,-2.3665,9.8513,9.5200,3.0800,1.1200,1001.2360,2.5236,-1.7186,9.3192,1590698138,N
81,1855574,2.3043,-1.5362,9.2172,31.1500,12.8100,4.6200,1001.2338,2.1686,-1.3985,9.4611,1590698138,N
82,1852391,2.0937,-0.2393,9.0855,35.8400,14.7700,14.0700,1001.2322,1.7528,-0.8323,9.6128,1590698138,N
81,1852966,2.9623,-0.5599,8.7003,-42.0700,-13.7200,-11.7600,1001.2310,2.5050,-1.1777,9.4079,1590698138,N
81,1851750,3.2207,-1.4644,9.5641,-63.9100,-59.9200,-27.2300,1001.2299,3.7770,-1.7721,8.8749,1590698138,N
82,1764454,4.4411,-1.9478,7.8652,-33.8100,-133.0700,-13.3000,1001.2296,5.2961,-2.1539,7.9676,1590698138,N
82,1947645,6.0491,-2.7517,7.9322,-75.6000,-66.2200,-5.3200,1001.2287,6.2243,-2.6878,7.0855,1590698138,N
82,1911563,6.6209,-6.6497,6.8076,-21.7700,-27.5800,-20.9300,1001.2285,6.5825,-3.0270,6.6089,1590698139,N
82,1942225,5.8433,-3.1370,6.8076,-11.9000,-62.7200,10.4300,1001.2286,6.8266,-3.1768,6.2830,1590698139,N
82,1971737,5.8935,-4.3382,6.2477,-22.1900,-21.0700,-32.9700,1001.2296,7.0020,-3.3435,5.9970,1590698139,N
82,1974889,6.3625,-3.4289,5.6136,29.8200,-6.1600,-8.8900,1001.2312,6.9877,-3.2197,6.0808,1590698139,N
82,1987940,8.8702,-3.2255,7.6977,46.4800,38.7800,-15.6100,1001.2327,6.7100,-2.8203,6.5721,1590698139,N
82,2001050,6.4271,-1.9836,6.2309,-3.9900,45.5000,32.4100,1001.2337,6.2973,-2.8567,6.9537,1590698139,N
82,2003648,6.8602,-1.9860,7.7097,-9.0300,5.4600,3.0800,1001.2340,6.3106,-2.7163,6.9977,1590698139,N
82,2000776,6.2596,-2.4239,7.2335,-2.3800,9.7300,0.8400,1001.2344,6.2362,-2.6697,7.0819,1590698139,N
82,2002188,6.2859,-3.4720,7.9226,-36.5400,16.2400,36.1200,1001.2346,5.9681,-3.1344,7.1224,1590698139,N
82,1991737,5.1398,-4.1228,6.2166,-37.5200,2.0300,40.2500,1001.2349,5.7816,-3.7907,6.9552,1590698139,N
82,1990891,4.4530,-4.7856,6.7573,-8.1200,-27.5100,16.8700,1001.2349,5.6631,-4.1769,6.8303,1590698140,N
82,1993735,5.5920,-4.8574,7.4297,-7.2800,-8.5400,-7.9100,1001.2345,5.6780,-4.2604,6.7661,1590698140,N
83,1990106,5.7404,-4.1515,6.7310,-1.9600,16.2400,-11.1300,1001.2332,5.6504,-4.1912,6.8321,1590698140,N
82,1989104,6.5731,-3.9721,8.1236,36.4000,34.0900,-6.1600,1001.2322,5.3731,-3.8157,7.2623,1590698140,N
82,1996093,5.5155,-4.1204,6.9679,3.9200,40.0400,-1.9600,1001.2314,5.1400,-3.8079,7.4331,1590698140,N
82,2010296,5.6495,-4.2353,7.7551,-51.4500,5.1800,-11.3400,1001.2324,5.3035,-4.0942,7.1611,1590698140,N
82,2010229,4.7330,-4.9388,6.8554,-14.9800,16.8000,-15.0500,1001.2341,5.1932,-4.2801,7.1331,1590698140,N
82,2006753,5.3384,-4.3454,6.5779,-8.9600,-5.3900,-8.4700,1001.2355,5.3463,-4.3372,6.9840,1590698140,N
82,1999487,6.1400,-5.3456,6.1878,-31.8500,-27.6500,2.3100,1001.2360,5.6687,-4.7026,6.4747,1590698140,N
83,1993689,5.3982,-4.7952,6.8124,-0.9800,-17.2200,21.0700,1001.2369,5.6008,-4.8274,6.4419,1590698140,N
82,1995263,4.3406,-7.1880,7.1713,31.7800,-27.3000,18.5500,1001.2370,5.4436,-4.9361,6.4940,1590698141,N
82,2000840,5.2475,-4.1372,5.7141,37.5900,-60.3400,-3.6400,1001.2372,5.8510,-4.6813,6.3263,1590698141,N
83,2006454,7.1713,-5.1661,7.1426,39.6900,-32.6900,4.4800,1001.2382,6.0199,-4.4569,6.3298,1590698141,N
82,2015674,7.6092,-4.9005,7.2383,-8.4700,4.5500,20.4400,1001.2389,5.9454,-4.5849,6.3088,1590698141,N
82,2021407,5.6495,-5.4197,7.0684,4.6900,30.5200,26.8100,1001.2396,5.5050,-4.7652,6.5695,1590698141,N
82,2017688,5.0345,-3.6562,5.8911,19.7400,23.0300,25.2700,1001.2405,5.2336,-4.6795,6.8471,1590698141,N
82,2005176,5.1852,-5.3839,7.2024,-4.7600,18.3400,7.9800,1001.2405,5.0290,-4.8071,6.9117,1590698141,N
81,2002620,4.6469,-4.8144,7.9729,17.0800,32.5500,14.6300,1001.2408,4.6178,-4.6690,7.2833,1590698141,N
82,2004433,3.5366,-4.5033,6.0969,-10.9900,26.2500,-3.1500,1001.2402,4.4147,-4.7535,7.3543,1590698141,N
82,2005312,4.8814,-4.9579,7.1186,23.4500,9.6600,-14.6300,1001.2395,4.4581,-4.5505,7.4558,1590698141,N
81,2007665,4.0271,-5.1398,7.9131,8.6800,6.3000,2.5900,1001.2377,4.2711,-4.5667,7.5547,1590698142,N
82,2006355,-6.2596,-6.4415,-9.6455,-50.3300,-193.8300,-178.5000,1001.2373,6.6164,-4.9789,5.2539,1590698142,N
81,1986524,7.3723,-10.2174,11.1386,4.2700,-21.0000,-75.8100,1001.2377,6.9002,-4.6072,5.2280,1590698142,N
81,1994214,4.6660,-3.8740,6.1759,-54.8100,29.0500,46.4800,1001.2390,6.3097,-5.2243,5.3911,1590698142,N
81,1995579,5.3073,-4.2042,4.7761,0.9800,11.9700,3.3600,1001.2404,6.2180,-5.2172,5.5034,1590698142,N
81,1993303,5.9964,-6.2261,5.7308,0.0700,0.6300,-17.9200,1001.2404,6.2012,-5.2533,5.4880,1590698142,N
81,1990723,5.2068,-6.0012,7.2000,-6.3000,-6.7200,-2.1700,1001.2408,5.9664,-5.3512,5.6513,1590698142,N
81,1989347,5.6830,-5.0201,6.3745,12.3200,5.1800,-10.0100,1001.2424,5.9223,-5.1625,5.8691,1590698142,N
80,1989967,5.1685,-6.0730,5.6327,7.6300,-8.5400,0.4200,1001.2442,5.8237,-5.3129,5.8334,1590698142,N
81,1991255,5.1159,-4.8790,5.8648,2.1000,-19.6000,-5.6700,1001.2454,5.8878,-5.2547,5.8217,1590698142,N
81,1988616,5.2475,-5.6207,5.3767,10.5000,-19.8800,-2.3100,1001.2467,5.9266,-5.3104,5.7311,1590698143,N
81,1984709,6.6042,-5.5753,7.7336,11.0600,21.2100,6.0900,1001.2480,5.7248,-5.2124,6.0190,1590698143,N
81,1982382,5.0465,-3.9266,5.3671,10.9900,12.2500,4.7600,1001.2492,5.6416,-5.0992,6.1920,1590698143,N
81,1980100,5.3121,-5.7069,7.0205,29.5400,-0.1400,1.1200,1001.2506,5.4784,-4.9917,6.4218,1590698143,N
81,1977936,5.6495,-4.1731,6.9248,-0.4200,2.3100,12.0400,1001.2506,5.4436,-4.8818,6.5349,1590698143,N
81,1976745,5.8217,-4.3645,6.9416,-1.0500,1.4700,-0.2100,1001.2510,5.4869,-4.7597,6.5886,1590698143,N
81,1976755,5.1422,-4.8598,6.7956,-1.2600,-2.1700,0.1400,1001.2507,5.4314,-4.7900,6.6126,1590698143,N
81,1976651,4.9603,-4.9723,6.9751,10.3600,-3.3600,-4.6200,1001.2513,5.3575,-4.7408,6.7077,1590698143,N
81,1971960,5.7021,-4.4435,7.0780,1.1900,2.0300,-3.4300,1001.2527,5.3949,-4.6288,6.7558,1590698143,N
81,1965766,5.6877,-4.3095,6.6592,-1.4700,-2.1000,-4.8300,1001.2530,5.4960,-4.5565,6.7233,1590698143,N
81,1961648,5.5896,-4.7234,7.0205,-8.8200,-5.1800,-8.0500,1001.2529,5.5591,-4.5742,6.6591,1590698144,N
81,1959820,5.1302,-4.6158,7.3149,-6.7900,1.8900,-6.0900,1001.2530,5.4758,-4.5733,6.7283,1590698144,N
81,1960464,5.3001,-4.9077,7.1067,19.9500,15.6800,-6.4400,1001.2531,5.3103,-4.4508,6.9398,1590698144,N
81,1960492,5.4485,-4.7163,6.3864,11.6200,17.5700,10.5700,1001.2534,5.1861,-4.4867,7.0103,1590698144,N
81,1959693,5.7547,-3.9266,7.1426,3.4300,7.1400,9.5900,1001.2540,5.1874,-4.3771,7.0783,1590698144,N
81,1960045,5.4006,-4.1803,7.6355,-6.8600,3.4300,3.9900,1001.2544,5.1586,-4.3575,7.1114,1590698144,N
81,1955975,5.0895,-4.5081,7.7671,-3.9200,8.3300,9.0300,1001.2540,5.0082,-4.3981,7.1934,1590698144,N
80,1952989,5.0847,-3.7208,7.9035,0.2100,6.0900,0.2100,1001.2543,4.9610,-4.2326,7.3242,1590698144,N
80,1947191,4.6469,-5.5083,7.9466,-10.3600,24.7100,1.1200,1001.2547,4.6743,-4.4275,7.3972,1590698144,N
80,1943384,4.2879,-5.0536,5.8433,-31.3600,15.9600,9.1700,1001.2559,4.6168,-4.8760,7.1470,1590698144,N
80,1945801,3.4313,-4.7115,6.9392,-0.3500,13.5800,-3.1500,1001.2565,4.3609,-4.8922,7.2952,1590698145,N
80,1952691,4.0367,-4.3119,6.6975,-16.6600,-7.9100,-19.4600,1001.2574,4.5352,-4.8965,7.1851,1590698145,N
80,1972175,4.1372,-4.9819,7.5326,27.7900,9.3100,-8.5400,1001.2585,4.3788,-4.6737,7.4265,1590698145,N
80,1978972,4.5344,-4.4602,7.1163,47.6700,17.0800,-12.6000,1001.2592,4.2866,-4.2616,7.7223,1590698145,N
80,1989505,4.8335,-4.8838,9.2267,0.1400,-10.2900,13.5800,1001.2596,4.2828,-4.3313,7.6855,1590698145,N
80,1996043,4.4387,-4.4124,7.4728,-8.3300,-3.9900,15.8200,1001.2608,4.2975,-4.4814,7.5907,1590698145,N
79,1993028,6.2644,-3.9577,6.7143,15.4700,9.0300,-0.2100,1001.2617,4.5719,-4.2806,7.5462,1590698145,N
80,2002146,3.6347,-4.1420,8.3557,14.7700,-15.8900,4.5500,1001.2625,4.4296,-4.2005,7.6749,1590698145,N
79,2011946,2.9695,-4.3908,8.2840,-37.4500,4.5500,-12.2500,1001.2625,4.2229,-4.4543,7.6484,1590698145,N
79,2036202,3.7831,-4.0128,7.6618,-34.8600,5.3200,-11.2000,1001.2632,4.2400,-4.5752,7.5671,1590698145,N
79,2061560,4.6516,-5.1254,7.3388,2.8700,-3.0100,5.0400,1001.2653,4.2938,-4.6656,7.4810,1590698146,N
79,2080900,4.9531,-5.8241,8.0375,49.3500,16.0300,8.9600,1001.2668,4.0554,-4.3625,7.7905,1590698146,N
79,2090062,4.1228,-3.7017,7.6857,-2.8000,-2.4500,11.7600,1001.2677,4.0767,-4.3263,7.7996,1590698146,N
79,2087068,4.5775,-4.6181,8.1787,-1.3300,-1.8200,-2.1700,1001.2687,4.1436,-4.3329,7.7606,1590698146,N
78,2083340,4.5176,-4.4506,7.3340,-17.3600,-9.9400,6.5100,1001.2690,4.2999,-4.5324,7.5590,1590698146,N
79,2082523,4.0463,-4.7043,8.1787,8.0500,4.4800,1.7500,1001.2693,4.1624,-4.4709,7.6717,1590698146,N
79,2082977,4.1468,-4.9914,7.5613,7.7000,0.1400,-0.2100,1001.2705,4.1350,-4.5062,7.6659,1590698146,N
79,2082536,3.9338,-4.4650,7.6020,5.1100,4.9000,1.2600,1001.2712,4.0609,-4.4718,7.7254,1590698146,N
78,2082417,4.1133,-4.2544,7.6092,15.4000,7.7000,-2.6600,1001.2714,4.0154,-4.3091,7.8409,1590698146,N
78,2084188,4.6062,-4.0128,8.0160,2.3100,-0.2100,-4.2700,1001.2719,4.1211,-4.1962,7.8472,1590698146,N
78,2084443,4.1994,-4.1850,7.8485,0.8400,-3.0800,-2.0300,1001.2717,4.1612,-4.1845,7.8323,1590698147,N
78,2079414,3.9984,-4.3789,8.4682,-1.6800,-4.2000,3.6400,1001.2713,4.1059,-4.2154,7.8449,1590698147,N
78,2074172,4.2568,-4.2616,8.2911,0.5600,-2.1700,-1.6100,1001.2711,4.1194,-4.1825,7.8554,1590698147,N
78,2071534,4.4889,-3.9984,7.8102,-3.4300,0.5600,1.5400,1001.2698,4.1858,-4.1705,7.8267,1590698147,N
78,2071124,4.2162,-4.0989,7.8437,4.3400,-0.7700,0.7700,1001.2689,4.1851,-4.1314,7.8477,1590698147,N
78,2072006,4.5775,-4.0032,8.2361,-8.8900,-6.7200,-0.7700,1001.2683,4.2937,-4.1428,7.7828,1590698147,N
77,2072645,4.4818,-4.7545,8.3868,0.7000,-2.8000,-1.2600,1001.2681,4.2846,-4.1874,7.7639,1590698147,N
78,2074093,4.6540,-4.1013,7.9155,24.9900,10.1500,5.8100,1001.2680,4.1872,-3.9813,7.9238,1590698147,N
77,2074727,5.1852,-5.0177,8.8630,12.6700,5.6000,22.9600,1001.2676,4.0511,-4.0079,7.9809,1590698147,N
78,2067514,4.6493,-4.4578,9.3990,-30.3100,3.7800,49.8400,1001.2672,3.8822,-4.4306,7.8402,1590698147,N
77,2056404,2.0506,-4.5224,8.4754,-52.9900,30.5900,59.8500,1001.2672,3.1627,-5.0217,7.8071,1590698148,N
77,2058266,1.4740,-4.9101,7.5063,11.9000,51.3100,42.5600,1001.2670,2.3439,-4.9666,8.1246,1590698148,N
77,2068050,2.1153,-6.0156,7.2144,9.2400,30.7300,20.2300,1001.2663,2.0364,-5.0466,8.1581,1590698148,N
77,2071663,0.6700,-3.7974,6.9966,-42.4200,-2.7300,-8.5400,1001.2651,1.9833,-5.3367,7.9848,1590698148,N
77,2076922,1.7300,-6.7621,7.3651,21.0000,-9.5900,-21.7000,1001.2643,2.0582,-5.3587,7.9510,1590698148,N
77,2090403,-0.1316,-6.4367,6.4678,17.7800,-4.1300,-29.3300,1001.2634,1.7496,-5.3161,8.0529,1590698148,N
77,2102213,1.2730,-8.0614,9.3655,-87.3600,-14.7000,31.0800,1001.2631,1.6781,-6.4326,7.2095,1590698148,N
77,2096989,1.5099,-7.5661,6.7406,-1.9600,5.3200,10.5000,1001.2634,1.5623,-6.6388,7.0467,1590698148,N
77,2105177,0.2177,-7.1043,7.9442,-9.8000,30.3100,11.1300,1001.2641,1.0761,-6.4573,7.3018,1590698148,N
77,2112416,-0.1460,-7.8628,7.5159,17.7100,70.4200,25.0600,1001.2645,0.3071,-4.8519,8.5168,1590698148,N
77,2115351,-0.6915,-6.0491,5.3073,43.1900,59.4300,20.3700,1001.2640,-0.4396,-2.0969,9.5698,1590698149,N
77,2086501,-0.1412,-6.1974,6.5085,88.5500,21.0700,16.3100,1001.2643,-0.5707,-0.7310,9.7627,1590698149,N
77,2109831,0.7202,-4.1587,7.5948,181.6500,21.8400,53.4100,1001.2651,-0.6251,-5.6266,8.0076,1590698149,N
77,2126453,-0.1555,-2.7589,12.9141,53.0600,27.1600,18.7600,1001.2651,-0.8363,-4.7853,8.5189,1590698149,N
77,2959942,-2.4431,-1.4931,9.6096,30.1000,-4.6200,-6.9300,1001.2648,-1.1396,-2.9480,9.2834,1590698149,N
77,3468484,-3.3619,0.2393,10.1408,-12.6700,9.3100,9.8000,1001.2641,-1.5677,-2.1215,9.4452,1590698149,N
77,3367040,-2.7876,-1.7348,10.0786,17.5000,11.9000,20.6500,1001.2634,-1.7984,-1.8244,9.4661,1590698149,N
77,2422549,-1.1342,-0.2608,13.6463,-22.9600,34.0900,-19.8800,1001.2628,-2.0935,-1.9956,9.3704,1590698149,N
77,2145287,-2.0387,-1.0122,9.3224,-94.2200,38.7100,-22.0500,1001.2622,-2.6918,-2.7638,9.0159,1590698149,N
77,2103272,-3.7280,-2.2229,7.3866,-12.1800,28.0700,-20.7200,1001.2626,-3.0887,-3.0416,8.7965,1590698149,N
76,2073341,-4.2329,-3.4074,7.9992,-22.2600,12.6000,4.5500,1001.2625,-3.4918,-3.3372,8.5347,1590698150,N
77,2089966,-3.8405,-3.0126,7.7575,2.1000,13.0900,33.2500,1001.2618,-3.8055,-3.2245,8.4434,1590698150,N
76,2110029,-4.1779,-1.7850,7.2646,-65.6600,-20.7900,0.9100,1001.2609,-3.9853,-3.5550,8.2249,1590698150,N
76,2117672,-3.6371,-4.0175,10.5045,64.8900,26.8100,15.1900,1001.2598,-3.9097,-3.0292,8.4681,1590698150,N
76,2117439,-5.2738,-1.8879,8.8917,31.2900,26.1800,16.4500,1001.2582,-4.2178,-2.5459,8.4793,1590698150,N
76,2091761,-4.8885,-0.2560,7.7527,56.9100,48.2300,-0.9800,1001.2572,-4.3868,-1.7408,8.5963,1590698150,N
76,2129821,-5.7284,-0.9930,6.1687,21.1400,9.3800,-25.6200,1001.2568,-4.4300,-1.6254,8.5967,1590698150,N
76,2143075,-4.1755,-1.8616,6.1735,2.2400,-45.9200,-45.1500,1001.2563,-4.0050,-1.7671,8.7754,1590698150,N
76,2151114,-4.0582,-7.0612,9.8871,67.6900,-73.5700,-39.0600,1001.2559,-2.9142,-1.4837,9.2453,1590698150,N
75,2127576,-3.8692,0.3135,6.2166,-61.1100,-116.2000,12.6000,1001.2562,-2.3650,-1.4859,9.4005,1590698151,N
76,2130818,0.5288,-1.4429,12.8279,-26.7400,-67.3400,-51.4500,1001.2565,-1.3399,-1.5851,9.5845,1590698151,N
75,2118986,-0.0072,-4.5129,10.6935,5.3900,22.5400,-5.1800,1001.2563,-1.4111,-1.8418,9.5282,1590698151,N
76,2112181,-0.6197,-1.3256,9.3918,6.9300,-29.6800,-10.7800,1001.2578,-0.9408,-1.5395,9.6393,1590698151,N
75,2100936,-0.5360,-1.6630,9.6598,0.2100,4.5500,12.7400,1001.2575,-0.9058,-1.5643,9.6386,1590698151,N
75,2078932,-0.9595,-1.9047,10.2365,14.7700,-2.7300,10.7100,1001.2574,-0.8504,-1.4379,9.6633,1590698151,N
